Index;Time_us;Ch1_val_uV;Ch1_ts_us;Ch2_val_uV;Ch2_ts_us;StimState
0;1765478442120826;-6389,760000;1765478442120826;;;0
1;1765478442120828;-6389,760000;1765478442120826;-6389,760000;1765478442120828;0
2;1765478442120831;-6389,760000;1765478442120826;6389,565000;1765478442120831;0
3;1765478442120832;-3327,870000;1765478442120832;6389,565000;1765478442120831;0
4;1765478442120833;-3327,870000;1765478442120832;4943,055000;1765478442120833;0
5;1765478442120834;-3327,090000;1765478442120834;4943,055000;1765478442120833;0
6;1765478442120835;-3329,040000;1765478442120835;6389,565000;1765478442120835;0
7;1765478442120836;-3331,185000;1765478442120836;6389,565000;1765478442120836;0
8;1765478442120838;-3331,185000;1765478442120838;6389,565000;1765478442120838;0
9;1765478442120839;-3331,965000;1765478442120839;6389,565000;1765478442120839;0
10;1765478442120840;-3331,965000;1765478442120839;6389,565000;1765478442120840;0
11;1765478442120841;-3331,770000;1765478442120841;6389,565000;1765478442120841;0
12;1765478442120842;-3328,260000;1765478442120842;6389,565000;1765478442120842;0
13;1765478442120843;-3334,305000;1765478442120843;6389,565000;1765478442120842;0
14;1765478442120846;-3331,380000;1765478442120846;6389,565000;1765478442120846;0
15;1765478442120847;-3330,210000;1765478442120847;6389,565000;1765478442120847;0
16;1765478442120848;-3331,185000;1765478442120848;6389,565000;1765478442120848;0
17;1765478442120849;-3330,405000;1765478442120849;6389,565000;1765478442120849;0
18;1765478442179119;-3931,785000;1765478442179119;6389,565000;1765478442120849;0
19;1765478442179121;-3931,785000;1765478442179119;6389,565000;1765478442179121;0
20;1765478442179122;-3330,210000;1765478442179122;6389,565000;1765478442179122;0
21;1765478442179123;-3330,405000;1765478442179123;6389,565000;1765478442179123;0
22;1765478442179124;-3328,845000;1765478442179124;6389,565000;1765478442179124;0
23;1765478442179125;-3330,210000;1765478442179125;6389,565000;1765478442179125;0
24;1765478442179126;-3329,040000;1765478442179126;-4684,290000;1765478442179126;0
25;1765478442179127;-3330,210000;1765478442179127;6389,565000;1765478442179127;0
26;1765478442179128;-3330,015000;1765478442179128;-4025,970000;1765478442179128;0
27;1765478442179129;-3330,600000;1765478442179129;6389,565000;1765478442179129;0
28;1765478442179130;-3329,040000;1765478442179130;6389,565000;1765478442179130;0
29;1765478442179131;-3328,260000;1765478442179131;6389,565000;1765478442179131;0
30;1765478442179132;-3326,505000;1765478442179132;6195,150000;1765478442179132;0
31;1765478442179133;-3326,505000;1765478442179132;6389,565000;1765478442179133;0
32;1765478442179134;-3330,600000;1765478442179134;6389,565000;1765478442179133;0
33;1765478442179144;-3330,210000;1765478442179144;6389,565000;1765478442179144;0
34;1765478442179145;-3328,065000;1765478442179145;6389,565000;1765478442179145;0
35;1765478442179146;-3329,040000;1765478442179146;6389,565000;1765478442179146;0
36;1765478442179147;-3330,210000;1765478442179147;6389,565000;1765478442179147;0
37;1765478442179148;-3329,040000;1765478442179148;6389,565000;1765478442179148;0
38;1765478442179149;-3330,600000;1765478442179149;6389,565000;1765478442179149;0
39;1765478442179150;-3330,210000;1765478442179150;6389,565000;1765478442179150;0
40;1765478442179151;-3328,845000;1765478442179151;6389,565000;1765478442179151;0
41;1765478442179152;-3329,040000;1765478442179152;6389,565000;1765478442179152;0
42;1765478442179153;-3329,235000;1765478442179153;6389,565000;1765478442179153;0
43;1765478442179154;-3331,380000;1765478442179154;6389,565000;1765478442179154;0
44;1765478442179155;-3330,600000;1765478442179155;6389,565000;1765478442179155;0
45;1765478442179156;-3330,600000;1765478442179155;6389,565000;1765478442179156;0
46;1765478442179162;-3328,650000;1765478442179162;6389,565000;1765478442179162;0
47;1765478442180637;-3931,785000;1765478442180637;6389,565000;1765478442179162;0
48;1765478442180641;-3931,785000;1765478442180637;6389,565000;1765478442180641;0
49;1765478442180643;-3333,525000;1765478442180643;6389,565000;1765478442180641;0
50;1765478442180644;-3333,525000;1765478442180643;6389,565000;1765478442180644;0
51;1765478442180646;-3332,160000;1765478442180646;6389,565000;1765478442180644;0
52;1765478442180647;-3332,160000;1765478442180646;6389,565000;1765478442180647;0
53;1765478442180648;-3330,210000;1765478442180648;6389,565000;1765478442180647;0
54;1765478442180649;-3330,210000;1765478442180648;6389,565000;1765478442180649;0
55;1765478442180651;-3328,650000;1765478442180651;6389,565000;1765478442180651;0
56;1765478442180652;-3330,600000;1765478442180652;6389,565000;1765478442180651;0
57;1765478442180653;-3330,600000;1765478442180652;6389,565000;1765478442180653;0
58;1765478442180657;-3333,330000;1765478442180657;6389,565000;1765478442180653;0
59;1765478442180658;-3333,330000;1765478442180657;6389,565000;1765478442180658;0
60;1765478442180659;-3330,210000;1765478442180659;6389,565000;1765478442180658;0
61;1765478442180660;-3330,210000;1765478442180659;6389,565000;1765478442180660;0
62;1765478442180661;-3331,185000;1765478442180661;6389,565000;1765478442180660;0
63;1765478442180662;-3331,185000;1765478442180661;6389,565000;1765478442180662;0
64;1765478442180672;-3330,015000;1765478442180672;6389,565000;1765478442180662;0
65;1765478442180673;-3330,015000;1765478442180672;6389,565000;1765478442180673;0
66;1765478442180674;-3334,305000;1765478442180674;6389,565000;1765478442180673;0
67;1765478442180676;-3334,305000;1765478442180674;6389,565000;1765478442180676;0
68;1765478442180677;-3330,210000;1765478442180677;6389,565000;1765478442180677;0
69;1765478442180678;-3329,820000;1765478442180678;6389,565000;1765478442180677;0
70;1765478442180679;-3329,820000;1765478442180678;6389,565000;1765478442180679;0
71;1765478442180680;-3330,210000;1765478442180680;6389,565000;1765478442180679;0
72;1765478442180681;-3330,210000;1765478442180680;6389,565000;1765478442180681;0
73;1765478442180682;-3328,260000;1765478442180682;6389,565000;1765478442180681;0
74;1765478442180683;-3328,260000;1765478442180682;6389,565000;1765478442180683;0
75;1765478442180684;-3332,745000;1765478442180684;6389,565000;1765478442180683;0
76;1765478442180685;-3332,745000;1765478442180684;6389,565000;1765478442180685;0
77;1765478442180689;-3331,185000;1765478442180689;6389,565000;1765478442180685;0
78;1765478442180690;-3331,185000;1765478442180689;6389,565000;1765478442180690;0
79;1765478442180693;-3324,360000;1765478442180693;6389,565000;1765478442180690;0
80;1765478442180694;-3324,360000;1765478442180693;6389,565000;1765478442180694;0
81;1765478442180696;-3330,210000;1765478442180696;6389,565000;1765478442180694;0
82;1765478442180697;-3330,210000;1765478442180696;6389,565000;1765478442180697;0
83;1765478442180698;-3330,600000;1765478442180698;6389,565000;1765478442180697;0
84;1765478442180699;-3330,600000;1765478442180698;6389,565000;1765478442180699;0
85;1765478442180700;-3330,210000;1765478442180700;6389,565000;1765478442180699;0
86;1765478442180701;-3330,210000;1765478442180700;6389,565000;1765478442180701;0
87;1765478442180702;-3324,945000;1765478442180702;6389,565000;1765478442180701;0
88;1765478442180703;-3324,945000;1765478442180702;6389,565000;1765478442180703;0
89;1765478442180704;-3330,210000;1765478442180704;6389,565000;1765478442180703;0
90;1765478442180705;-3330,210000;1765478442180704;6389,565000;1765478442180705;0
91;1765478442180706;-3327,870000;1765478442180706;6389,565000;1765478442180705;0
92;1765478442180707;-3327,870000;1765478442180706;6389,565000;1765478442180707;0
93;1765478442180709;-3329,040000;1765478442180709;6389,565000;1765478442180707;0
94;1765478442180710;-3328,260000;1765478442180710;6389,565000;1765478442180710;0
95;1765478442180711;-3328,260000;1765478442180710;6381,375000;1765478442180711;0
96;1765478442180712;-3327,285000;1765478442180712;6381,375000;1765478442180711;0
97;1765478442180713;-3327,285000;1765478442180712;3147,495000;1765478442180713;0
98;1765478442180714;-3330,210000;1765478442180714;3147,495000;1765478442180713;0
99;1765478442180715;-3330,210000;1765478442180714;6389,565000;1765478442180715;0
100;1765478442180716;-3331,185000;1765478442180716;6389,565000;1765478442180716;0
101;1765478442180717;-3334,890000;1765478442180717;6389,565000;1765478442180716;0
102;1765478442180718;-3334,890000;1765478442180717;6389,565000;1765478442180718;0
103;1765478442180719;-3330,600000;1765478442180719;6389,565000;1765478442180718;0
104;1765478442180720;-3330,600000;1765478442180719;6389,565000;1765478442180720;0
105;1765478442180722;-3328,065000;1765478442180722;6389,565000;1765478442180720;0
106;1765478442180723;-3330,405000;1765478442180723;6389,565000;1765478442180723;0
107;1765478442180724;-3330,405000;1765478442180723;6389,565000;1765478442180724;0
108;1765478442180725;-3333,915000;1765478442180725;6389,565000;1765478442180724;0
109;1765478442180726;-3333,915000;1765478442180725;6389,565000;1765478442180726;0
110;1765478442180729;-3328,650000;1765478442180729;6389,565000;1765478442180726;0
111;1765478442180730;-3328,650000;1765478442180729;6389,565000;1765478442180730;0
112;1765478442180731;-3329,625000;1765478442180731;6389,565000;1765478442180730;0
113;1765478442180732;-3329,625000;1765478442180731;6389,565000;1765478442180732;0
114;1765478442180733;-3329,040000;1765478442180733;6389,565000;1765478442180732;0
115;1765478442180734;-3329,040000;1765478442180733;6389,565000;1765478442180734;0
116;1765478442180735;-3331,185000;1765478442180735;6389,565000;1765478442180735;0
117;1765478442183886;-3931,785000;1765478442183886;6389,565000;1765478442180735;0
118;1765478442183888;-3931,785000;1765478442183886;6389,565000;1765478442183888;0
119;1765478442183889;-3328,260000;1765478442183889;6389,565000;1765478442183889;0
120;1765478442183890;-3328,065000;1765478442183890;6389,565000;1765478442183889;0
121;1765478442183893;-3328,065000;1765478442183890;6389,565000;1765478442183893;0
122;1765478442183895;-3328,260000;1765478442183895;6389,565000;1765478442183895;0
123;1765478442183896;-3327,870000;1765478442183896;6389,565000;1765478442183896;0
124;1765478442183897;-3327,870000;1765478442183896;6389,565000;1765478442183897;0
125;1765478442183898;-3331,770000;1765478442183898;6389,565000;1765478442183898;0
126;1765478442183899;-3327,090000;1765478442183899;6389,565000;1765478442183899;0
127;1765478442183900;-3329,040000;1765478442183900;6389,565000;1765478442183900;0
128;1765478442183901;-3329,040000;1765478442183900;6389,565000;1765478442183901;0
129;1765478442183902;-3328,260000;1765478442183902;6389,565000;1765478442183902;0
130;1765478442183903;-3333,330000;1765478442183903;5370,690000;1765478442183903;0
131;1765478442183904;-3330,405000;1765478442183904;-4045,665000;1765478442183904;0
132;1765478442183905;-3330,600000;1765478442183905;1,560000;1765478442183905;0
133;1765478442183906;-3328,065000;1765478442183906;6389,565000;1765478442183906;0
134;1765478442183907;-3330,405000;1765478442183907;6389,565000;1765478442183907;0
135;1765478442183908;-3330,210000;1765478442183908;6389,565000;1765478442183908;0
136;1765478442183909;-3328,650000;1765478442183909;6389,565000;1765478442183909;0
137;1765478442183910;-3331,380000;1765478442183910;-4360,980000;1765478442183910;0
138;1765478442183911;-3328,260000;1765478442183911;6389,565000;1765478442183911;0
139;1765478442183912;-3328,065000;1765478442183912;4692,870000;1765478442183912;0
140;1765478442183913;-3331,185000;1765478442183913;6389,565000;1765478442183913;0
141;1765478442183914;-3328,260000;1765478442183914;6389,565000;1765478442183913;0
142;1765478442183915;-3331,380000;1765478442183915;6389,565000;1765478442183915;0
143;1765478442183916;-3331,380000;1765478442183916;3739,710000;1765478442183916;0
144;1765478442183918;-3328,845000;1765478442183918;-4272,450000;1765478442183918;0
145;1765478442183919;-3330,210000;1765478442183919;6389,565000;1765478442183919;0
146;1765478442183921;-3331,380000;1765478442183921;6389,565000;1765478442183921;0
147;1765478442183922;-3331,965000;1765478442183922;6389,565000;1765478442183922;0
148;1765478442183923;-3329,625000;1765478442183923;6389,565000;1765478442183923;0
149;1765478442183924;-3329,430000;1765478442183924;6389,565000;1765478442183924;0
150;1765478442237727;-3931,785000;1765478442237727;6389,565000;1765478442183924;0
151;1765478442237731;-3931,785000;1765478442237727;6389,565000;1765478442237731;0
152;1765478442237732;-3327,285000;1765478442237732;6389,565000;1765478442237731;0
153;1765478442237733;-3332,160000;1765478442237733;6389,565000;1765478442237733;0
154;1765478442237734;-3332,160000;1765478442237733;6389,565000;1765478442237734;0
155;1765478442237735;-3328,650000;1765478442237735;6389,565000;1765478442237734;0
156;1765478442237741;-3328,650000;1765478442237735;6389,565000;1765478442237741;0
157;1765478442237742;-3330,600000;1765478442237742;6389,565000;1765478442237742;0
158;1765478442237744;-3328,650000;1765478442237744;6389,565000;1765478442237744;0
159;1765478442237745;-3332,355000;1765478442237745;6389,565000;1765478442237744;0
160;1765478442237748;-3328,260000;1765478442237748;-3879,525000;1765478442237748;0
161;1765478442237749;-3330,405000;1765478442237749;6389,565000;1765478442237749;0
162;1765478442237750;-3329,820000;1765478442237750;6389,565000;1765478442237750;0
163;1765478442237751;-3331,185000;1765478442237751;6389,565000;1765478442237751;0
164;1765478442237752;-3329,040000;1765478442237752;6389,565000;1765478442237752;0
165;1765478442237753;-3329,040000;1765478442237752;6389,565000;1765478442237753;0
166;1765478442237756;-3328,260000;1765478442237756;6389,565000;1765478442237756;0
167;1765478442237757;-3330,015000;1765478442237757;6389,565000;1765478442237757;0
168;1765478442237758;-3328,260000;1765478442237758;6389,565000;1765478442237758;0
169;1765478442237759;-3328,260000;1765478442237759;6389,565000;1765478442237759;0
170;1765478442237760;-3330,210000;1765478442237760;6389,565000;1765478442237759;0
171;1765478442237761;-3329,040000;1765478442237761;6389,565000;1765478442237761;0
172;1765478442237762;-3329,040000;1765478442237761;6389,565000;1765478442237762;0
173;1765478442237763;-3331,185000;1765478442237763;6389,565000;1765478442237763;0
174;1765478442237764;-3328,260000;1765478442237764;6389,565000;1765478442237763;0
175;1765478442237765;-3328,260000;1765478442237765;6389,565000;1765478442237765;0
176;1765478442237766;-3330,210000;1765478442237766;6389,565000;1765478442237766;0
177;1765478442237767;-3329,040000;1765478442237767;6389,565000;1765478442237767;0
178;1765478442237768;-3328,650000;1765478442237768;6389,565000;1765478442237768;0
179;1765478442237769;-3328,065000;1765478442237769;6389,565000;1765478442237769;0
180;1765478442237770;-3328,065000;1765478442237770;6389,565000;1765478442237770;0
181;1765478442237771;-3328,065000;1765478442237770;6389,565000;1765478442237771;0
182;1765478442237772;-3330,210000;1765478442237772;6389,565000;1765478442237771;0
183;1765478442237774;-3330,210000;1765478442237772;6389,565000;1765478442237774;0
184;1765478442237775;-3330,405000;1765478442237775;6389,565000;1765478442237775;0
185;1765478442237776;-3330,405000;1765478442237776;6389,565000;1765478442237776;0
186;1765478442237777;-3330,600000;1765478442237777;-4524,390000;1765478442237777;0
187;1765478442237778;-3330,210000;1765478442237778;-4524,390000;1765478442237777;0
188;1765478442237779;-3328,845000;1765478442237779;6389,565000;1765478442237779;0
189;1765478442237780;-3328,650000;1765478442237780;6389,565000;1765478442237780;0
190;1765478442237781;-3328,650000;1765478442237780;6389,565000;1765478442237781;0
191;1765478442237782;-3328,650000;1765478442237782;6389,565000;1765478442237782;0
192;1765478442237783;-3328,260000;1765478442237783;6386,445000;1765478442237783;0
193;1765478442237784;-3327,090000;1765478442237784;6386,445000;1765478442237783;0
194;1765478442237785;-3327,090000;1765478442237784;6389,565000;1765478442237785;0
195;1765478442237786;-3328,065000;1765478442237786;6389,565000;1765478442237786;0
196;1765478442297747;-3931,785000;1765478442297747;6389,565000;1765478442237786;0
197;1765478442297751;-3327,090000;1765478442297751;6389,565000;1765478442297751;0
198;1765478442297752;-3327,090000;1765478442297751;6389,565000;1765478442297752;0
199;1765478442297753;-3330,210000;1765478442297753;6389,565000;1765478442297752;0
200;1765478442297754;-3328,650000;1765478442297754;6389,565000;1765478442297754;0
201;1765478442297755;-3328,260000;1765478442297755;6389,565000;1765478442297755;0
202;1765478442297758;-3327,090000;1765478442297758;6389,565000;1765478442297758;0
203;1765478442297759;-3329,040000;1765478442297759;6389,565000;1765478442297759;0
204;1765478442297760;-3330,210000;1765478442297760;6389,565000;1765478442297760;0
205;1765478442297761;-3328,065000;1765478442297761;-4479,540000;1765478442297761;0
206;1765478442297762;-3328,065000;1765478442297761;6389,565000;1765478442297762;0
207;1765478442297763;-3329,820000;1765478442297763;6389,565000;1765478442297763;0
208;1765478442297764;-3329,820000;1765478442297763;6389,565000;1765478442297764;0
209;1765478442297769;-3330,600000;1765478442297769;6389,565000;1765478442297769;0
210;1765478442297770;-3333,915000;1765478442297770;6389,565000;1765478442297770;0
211;1765478442297771;-3330,015000;1765478442297771;6389,565000;1765478442297771;0
212;1765478442297772;-3328,065000;1765478442297772;6389,565000;1765478442297772;0
213;1765478442297773;-3328,065000;1765478442297772;6389,565000;1765478442297773;0
214;1765478442297774;-3330,600000;1765478442297774;6389,565000;1765478442297774;0
215;1765478442297775;-3331,185000;1765478442297775;6389,565000;1765478442297775;0
216;1765478442297776;-3326,505000;1765478442297776;6389,565000;1765478442297776;0
217;1765478442297777;-3326,505000;1765478442297776;6389,565000;1765478442297777;0
218;1765478442297778;-3331,965000;1765478442297778;6389,565000;1765478442297777;0
219;1765478442297779;-3328,650000;1765478442297779;6389,565000;1765478442297779;0
220;1765478442297780;-3329,040000;1765478442297780;6389,565000;1765478442297780;0
221;1765478442297781;-3329,040000;1765478442297780;6389,565000;1765478442297781;0
222;1765478442297782;-3330,210000;1765478442297782;-4285,320000;1765478442297782;0
223;1765478442297783;-3327,090000;1765478442297783;6389,565000;1765478442297783;0
224;1765478442297784;-3327,090000;1765478442297783;6389,565000;1765478442297784;0
225;1765478442297785;-3328,260000;1765478442297785;6389,565000;1765478442297784;0
226;1765478442297786;-3330,210000;1765478442297786;6389,565000;1765478442297786;0
227;1765478442297787;-3330,210000;1765478442297786;6389,565000;1765478442297787;0
228;1765478442297788;-3329,040000;1765478442297788;6389,565000;1765478442297787;0
229;1765478442297789;-3328,650000;1765478442297789;6389,565000;1765478442297789;0
230;1765478442297790;-3328,650000;1765478442297789;6389,565000;1765478442297790;0
231;1765478442297791;-3330,015000;1765478442297791;-4362,930000;1765478442297791;0
232;1765478442297792;-3328,260000;1765478442297792;6389,565000;1765478442297792;0
233;1765478442297793;-3328,260000;1765478442297792;6389,565000;1765478442297793;0
234;1765478442297794;-3330,210000;1765478442297794;6389,565000;1765478442297794;0
235;1765478442297795;-3331,185000;1765478442297795;6389,565000;1765478442297795;0
236;1765478442297796;-3328,065000;1765478442297796;6389,565000;1765478442297796;0
237;1765478442357375;-3931,785000;1765478442357375;6389,565000;1765478442297796;0
238;1765478442357378;-3931,785000;1765478442357375;6389,565000;1765478442357378;0
239;1765478442357379;-3931,785000;1765478442357375;6389,565000;1765478442357379;0
240;1765478442357380;-3331,185000;1765478442357380;6389,565000;1765478442357380;0
241;1765478442357381;-3328,065000;1765478442357381;6389,565000;1765478442357380;0
242;1765478442357382;-3328,260000;1765478442357382;6389,565000;1765478442357382;0
243;1765478442357383;-3328,065000;1765478442357383;6389,565000;1765478442357383;0
244;1765478442357384;-3336,255000;1765478442357384;6389,565000;1765478442357384;0
245;1765478442357385;-3331,770000;1765478442357385;6389,565000;1765478442357385;0
246;1765478442357386;-3328,455000;1765478442357386;6389,565000;1765478442357386;0
247;1765478442357387;-3328,650000;1765478442357387;6389,565000;1765478442357387;0
248;1765478442357388;-3328,065000;1765478442357388;6389,565000;1765478442357388;0
249;1765478442357389;-3326,895000;1765478442357389;6389,565000;1765478442357389;0
250;1765478442357390;-3328,065000;1765478442357390;6389,565000;1765478442357390;0
251;1765478442357391;-3327,090000;1765478442357391;6389,565000;1765478442357391;0
252;1765478442357396;-3328,260000;1765478442357396;6389,565000;1765478442357391;0
253;1765478442357397;-3328,260000;1765478442357396;6389,565000;1765478442357397;0
254;1765478442357398;-3329,040000;1765478442357398;6389,565000;1765478442357398;0
255;1765478442357400;-3330,600000;1765478442357400;6389,565000;1765478442357400;0
256;1765478442357401;-3328,260000;1765478442357401;-4030,260000;1765478442357401;0
257;1765478442357402;-3331,380000;1765478442357402;6389,565000;1765478442357402;0
258;1765478442357403;-3331,380000;1765478442357402;6389,565000;1765478442357403;0
259;1765478442357405;-3328,260000;1765478442357405;6389,565000;1765478442357405;0
260;1765478442357406;-3326,895000;1765478442357406;6389,565000;1765478442357406;0
261;1765478442357407;-3327,285000;1765478442357407;6389,565000;1765478442357407;0
262;1765478442357408;-3330,210000;1765478442357408;6389,565000;1765478442357408;0
263;1765478442357409;-3330,600000;1765478442357409;6389,565000;1765478442357409;0
264;1765478442357410;-3329,040000;1765478442357410;6389,565000;1765478442357410;0
265;1765478442357411;-3329,040000;1765478442357410;6389,565000;1765478442357411;0
266;1765478442357412;-3330,210000;1765478442357412;2631,135000;1765478442357412;0
267;1765478442357413;-3328,065000;1765478442357413;6389,565000;1765478442357413;0
268;1765478442357414;-3330,210000;1765478442357414;6389,565000;1765478442357414;0
269;1765478442357415;-3327,090000;1765478442357415;6389,565000;1765478442357415;0
270;1765478442357416;-3329,820000;1765478442357416;6389,565000;1765478442357416;0
271;1765478442357417;-3327,870000;1765478442357417;6389,565000;1765478442357417;0
272;1765478442357418;-3327,090000;1765478442357418;6389,565000;1765478442357418;0
273;1765478442357419;-3323,970000;1765478442357419;6389,565000;1765478442357419;0
274;1765478442357420;-3329,625000;1765478442357420;6389,565000;1765478442357420;0
275;1765478442357421;-3329,625000;1765478442357420;6389,565000;1765478442357421;0
276;1765478442357422;-3328,065000;1765478442357422;6389,565000;1765478442357422;0
277;1765478442360495;-3931,785000;1765478442360495;6389,565000;1765478442357422;0
278;1765478442360497;-3931,785000;1765478442360495;6389,565000;1765478442360497;0
279;1765478442360498;-3328,260000;1765478442360498;-4461,600000;1765478442360498;0
280;1765478442360499;-3328,260000;1765478442360499;-4461,600000;1765478442360498;0
281;1765478442360500;-3323,970000;1765478442360500;6389,565000;1765478442360500;0
282;1765478442360501;-3327,870000;1765478442360501;6389,565000;1765478442360501;0
283;1765478442360502;-3327,870000;1765478442360501;6389,565000;1765478442360502;0
284;1765478442360507;-3331,380000;1765478442360507;6389,565000;1765478442360502;0
285;1765478442360508;-3327,480000;1765478442360508;6389,565000;1765478442360508;0
286;1765478442360509;-3327,675000;1765478442360509;6389,565000;1765478442360509;0
287;1765478442360510;-3327,870000;1765478442360510;6389,565000;1765478442360510;0
288;1765478442360511;-3327,285000;1765478442360511;6389,565000;1765478442360511;0
289;1765478442360512;-3327,090000;1765478442360512;6389,565000;1765478442360512;0
290;1765478442360513;-3327,090000;1765478442360512;6389,565000;1765478442360513;0
291;1765478442360514;-3330,405000;1765478442360514;6389,565000;1765478442360514;0
292;1765478442360516;-3328,845000;1765478442360516;6389,565000;1765478442360516;0
293;1765478442360518;-3327,090000;1765478442360518;-4086,420000;1765478442360518;0
294;1765478442360519;-3329,040000;1765478442360519;6389,565000;1765478442360519;0
295;1765478442360520;-3329,040000;1765478442360520;6389,565000;1765478442360520;0
296;1765478442360521;-3328,065000;1765478442360521;6389,565000;1765478442360520;0
297;1765478442360522;-3324,360000;1765478442360522;6389,565000;1765478442360522;0
298;1765478442360523;-3324,360000;1765478442360522;6389,565000;1765478442360523;0
299;1765478442360524;-3327,480000;1765478442360524;4379,895000;1765478442360524;0
300;1765478442360525;-3326,700000;1765478442360525;6389,565000;1765478442360525;0
301;1765478442360526;-3328,065000;1765478442360526;6389,565000;1765478442360526;0
302;1765478442360527;-3330,210000;1765478442360527;6389,565000;1765478442360527;0
303;1765478442360528;-3328,065000;1765478442360528;6389,565000;1765478442360528;0
304;1765478442360529;-3327,090000;1765478442360529;6389,565000;1765478442360529;0
305;1765478442360530;-3324,750000;1765478442360530;6389,565000;1765478442360530;0
306;1765478442360531;-3327,090000;1765478442360531;6389,565000;1765478442360531;0
307;1765478442360532;-3328,845000;1765478442360532;6389,565000;1765478442360532;0
308;1765478442360533;-3329,430000;1765478442360533;6389,565000;1765478442360533;0
309;1765478442360534;-3328,650000;1765478442360534;6389,565000;1765478442360534;0
310;1765478442360535;-3328,065000;1765478442360535;6389,565000;1765478442360535;0
311;1765478442360536;-3330,210000;1765478442360536;6389,565000;1765478442360535;0
312;1765478442360537;-3327,480000;1765478442360537;6389,565000;1765478442360537;0
313;1765478442360538;-3327,480000;1765478442360537;6389,565000;1765478442360538;0
314;1765478442360539;-3330,210000;1765478442360539;6389,565000;1765478442360538;0
315;1765478442360540;-3330,015000;1765478442360540;4717,830000;1765478442360540;0
316;1765478442417446;-3931,785000;1765478442417446;4717,830000;1765478442360540;0
317;1765478442417448;-3931,785000;1765478442417446;6389,565000;1765478442417448;0
318;1765478442417449;-3327,090000;1765478442417449;6389,565000;1765478442417449;0
319;1765478442417450;-3327,870000;1765478442417450;6389,565000;1765478442417450;0
320;1765478442417451;-3330,405000;1765478442417451;6389,565000;1765478442417451;0
321;1765478442417452;-3327,090000;1765478442417452;6389,565000;1765478442417452;0
322;1765478442417453;-3328,650000;1765478442417453;6389,565000;1765478442417453;0
323;1765478442417454;-3328,260000;1765478442417454;6389,565000;1765478442417454;0
324;1765478442417455;-3324,750000;1765478442417455;6389,565000;1765478442417455;0
325;1765478442417456;-3327,480000;1765478442417456;6389,565000;1765478442417456;0
326;1765478442417457;-3323,970000;1765478442417457;6389,565000;1765478442417457;0
327;1765478442417458;-3328,260000;1765478442417458;6389,565000;1765478442417458;0
328;1765478442417459;-3330,795000;1765478442417459;5711,745000;1765478442417459;0
329;1765478442417460;-3328,260000;1765478442417460;6389,565000;1765478442417460;0
330;1765478442417461;-3328,845000;1765478442417461;-4649,385000;1765478442417461;0
331;1765478442417462;-3328,065000;1765478442417462;6389,565000;1765478442417462;0
332;1765478442417465;-3328,065000;1765478442417462;6389,565000;1765478442417465;0
333;1765478442417466;-3328,065000;1765478442417466;-4522,245000;1765478442417466;0
334;1765478442417467;-3330,600000;1765478442417467;6389,565000;1765478442417467;0
335;1765478442417468;-3327,090000;1765478442417468;6389,565000;1765478442417468;0
336;1765478442417469;-3328,650000;1765478442417469;6389,565000;1765478442417469;0
337;1765478442417470;-3326,310000;1765478442417470;6389,565000;1765478442417470;0
338;1765478442417471;-3327,090000;1765478442417471;6389,565000;1765478442417471;0
339;1765478442417472;-3325,920000;1765478442417472;-4282,785000;1765478442417472;0
340;1765478442417473;-3328,650000;1765478442417473;6389,565000;1765478442417473;0
341;1765478442417474;-3327,090000;1765478442417474;6389,565000;1765478442417474;0
342;1765478442417475;-3327,870000;1765478442417475;6389,565000;1765478442417475;0
343;1765478442417476;-3328,065000;1765478442417476;4209,855000;1765478442417476;0
344;1765478442417477;-3328,065000;1765478442417476;6389,565000;1765478442417477;0
345;1765478442477630;-3931,785000;1765478442477630;6389,565000;1765478442417477;0
346;1765478442477633;-3931,785000;1765478442477630;6389,565000;1765478442477633;0
347;1765478442477634;-3328,845000;1765478442477634;6389,565000;1765478442477634;0
348;1765478442477635;-3329,625000;1765478442477635;-4674,930000;1765478442477635;0
349;1765478442477636;-3325,530000;1765478442477636;6389,565000;1765478442477636;0
350;1765478442477637;-3325,530000;1765478442477636;6389,565000;1765478442477637;0
351;1765478442477638;-3328,650000;1765478442477638;6389,565000;1765478442477638;0
352;1765478442477639;-3329,625000;1765478442477639;6389,565000;1765478442477639;0
353;1765478442477640;-3326,895000;1765478442477640;6389,565000;1765478442477640;0
354;1765478442477641;-3328,845000;1765478442477641;6389,565000;1765478442477641;0
355;1765478442477642;-3324,750000;1765478442477642;6389,565000;1765478442477642;0
356;1765478442477643;-3329,040000;1765478442477643;6389,565000;1765478442477643;0
357;1765478442477644;-3326,505000;1765478442477644;6389,565000;1765478442477644;0
358;1765478442477645;-3328,065000;1765478442477645;6389,565000;1765478442477644;0
359;1765478442477646;-3327,285000;1765478442477646;6389,565000;1765478442477646;0
360;1765478442477647;-3327,090000;1765478442477647;6389,565000;1765478442477647;0
361;1765478442477648;-3328,260000;1765478442477648;6389,565000;1765478442477648;0
362;1765478442477649;-3328,650000;1765478442477649;-4225,650000;1765478442477649;0
363;1765478442477651;-3331,185000;1765478442477651;-4225,650000;1765478442477649;0
364;1765478442477652;-3325,140000;1765478442477652;6389,565000;1765478442477652;0
365;1765478442477653;-3325,140000;1765478442477652;6389,565000;1765478442477653;0
366;1765478442477654;-3327,090000;1765478442477654;6389,565000;1765478442477654;0
367;1765478442477655;-3323,970000;1765478442477655;6389,565000;1765478442477655;0
368;1765478442477656;-3328,065000;1765478442477656;6389,565000;1765478442477655;0
369;1765478442477665;-3328,065000;1765478442477656;6389,565000;1765478442477665;0
370;1765478442477666;-3327,870000;1765478442477666;6389,565000;1765478442477666;0
371;1765478442477667;-3328,260000;1765478442477667;6389,565000;1765478442477667;0
372;1765478442477668;-3327,675000;1765478442477668;6389,565000;1765478442477668;0
373;1765478442477670;-3328,065000;1765478442477670;6389,565000;1765478442477668;0
374;1765478442477671;-3328,065000;1765478442477671;6389,565000;1765478442477671;0
375;1765478442477672;-3326,505000;1765478442477672;6389,565000;1765478442477672;0
376;1765478442477673;-3327,090000;1765478442477673;6389,565000;1765478442477673;0
377;1765478442477674;-3326,310000;1765478442477674;6389,565000;1765478442477674;0
378;1765478442477675;-3327,675000;1765478442477675;6389,565000;1765478442477675;0
379;1765478442477676;-3328,260000;1765478442477676;6389,565000;1765478442477676;0
380;1765478442477677;-3328,260000;1765478442477677;6389,565000;1765478442477677;0
381;1765478442477678;-3328,260000;1765478442477677;6389,565000;1765478442477678;0
382;1765478442477679;-3328,260000;1765478442477679;6389,565000;1765478442477679;0
383;1765478442477680;-3327,285000;1765478442477680;6389,565000;1765478442477680;0
384;1765478442477681;-3326,895000;1765478442477681;6389,565000;1765478442477681;0
385;1765478442477682;-3325,140000;1765478442477682;6389,565000;1765478442477682;0
386;1765478442477683;-3328,260000;1765478442477683;6389,565000;1765478442477683;0
387;1765478442477684;-3328,260000;1765478442477683;6389,565000;1765478442477684;0
388;1765478442537359;-3931,785000;1765478442537359;6389,565000;1765478442477684;0
389;1765478442537362;-3931,785000;1765478442537359;6389,565000;1765478442537362;0
390;1765478442537363;-3325,140000;1765478442537363;6389,565000;1765478442537362;0
391;1765478442537364;-3326,895000;1765478442537364;6389,565000;1765478442537364;0
392;1765478442537365;-3328,065000;1765478442537365;6389,565000;1765478442537365;0
393;1765478442537366;-3327,480000;1765478442537366;6389,565000;1765478442537366;0
394;1765478442537367;-3328,065000;1765478442537367;6389,565000;1765478442537367;0
395;1765478442537368;-3325,140000;1765478442537368;6389,565000;1765478442537368;0
396;1765478442537369;-3330,600000;1765478442537369;6389,565000;1765478442537369;0
397;1765478442537370;-3327,090000;1765478442537370;6389,565000;1765478442537370;0
398;1765478442537371;-3328,845000;1765478442537371;6389,565000;1765478442537371;0
399;1765478442537372;-3328,065000;1765478442537372;6389,565000;1765478442537372;0
400;1765478442537373;-3325,920000;1765478442537373;6389,565000;1765478442537373;0
401;1765478442537378;-3327,090000;1765478442537378;6389,565000;1765478442537378;0
402;1765478442537379;-3330,990000;1765478442537379;6389,565000;1765478442537379;0
403;1765478442537380;-3323,970000;1765478442537380;6389,565000;1765478442537380;0
404;1765478442537381;-3325,920000;1765478442537381;6389,565000;1765478442537381;0
405;1765478442537382;-3327,675000;1765478442537382;6337,890000;1765478442537382;0
406;1765478442537383;-3327,090000;1765478442537383;6389,565000;1765478442537383;0
407;1765478442537384;-3330,210000;1765478442537384;6389,565000;1765478442537384;0
408;1765478442537385;-3327,090000;1765478442537385;6389,565000;1765478442537385;0
409;1765478442537386;-3325,530000;1765478442537386;6389,565000;1765478442537386;0
410;1765478442537387;-3325,530000;1765478442537386;6389,565000;1765478442537387;0
411;1765478442537389;-3326,310000;1765478442537389;6389,565000;1765478442537387;0
412;1765478442537390;-3327,090000;1765478442537390;6389,565000;1765478442537390;0
413;1765478442537391;-3326,505000;1765478442537391;6389,565000;1765478442537391;0
414;1765478442537393;-3326,895000;1765478442537393;6389,565000;1765478442537393;0
415;1765478442537394;-3325,140000;1765478442537394;6389,565000;1765478442537394;0
416;1765478442537395;-3328,065000;1765478442537395;6389,565000;1765478442537395;0
417;1765478442537396;-3328,065000;1765478442537396;6389,565000;1765478442537396;0
418;1765478442537397;-3326,505000;1765478442537397;6389,565000;1765478442537397;0
419;1765478442537398;-3328,065000;1765478442537398;6389,565000;1765478442537398;0
420;1765478442537399;-3326,310000;1765478442537399;6389,565000;1765478442537399;0
421;1765478442537400;-3326,310000;1765478442537399;6389,565000;1765478442537400;0
422;1765478442537401;-3326,310000;1765478442537401;-4650,945000;1765478442537401;0
423;1765478442537402;-3326,115000;1765478442537402;6389,565000;1765478442537402;0
424;1765478442537403;-3326,115000;1765478442537402;6389,565000;1765478442537403;0
425;1765478442540455;-3931,785000;1765478442540455;6389,565000;1765478442537403;0
426;1765478442540457;-3931,785000;1765478442540455;6389,565000;1765478442540457;0
427;1765478442540458;-3327,090000;1765478442540458;6389,565000;1765478442540458;0
428;1765478442540459;-3328,065000;1765478442540459;6389,565000;1765478442540459;0
429;1765478442540465;-3330,210000;1765478442540465;6389,565000;1765478442540465;0
430;1765478442540468;-3324,945000;1765478442540468;6389,565000;1765478442540468;0
431;1765478442540469;-3326,505000;1765478442540469;6389,565000;1765478442540469;0
432;1765478442540470;-3324,750000;1765478442540470;6389,565000;1765478442540470;0
433;1765478442540471;-3328,845000;1765478442540471;6389,565000;1765478442540471;0
434;1765478442540472;-3328,845000;1765478442540471;6389,565000;1765478442540472;0
435;1765478442540473;-3324,165000;1765478442540473;6389,565000;1765478442540473;0
436;1765478442540474;-3323,970000;1765478442540474;6389,565000;1765478442540474;0
437;1765478442540475;-3326,505000;1765478442540475;-4469,985000;1765478442540475;0
438;1765478442540476;-3327,285000;1765478442540476;6389,565000;1765478442540476;0
439;1765478442540477;-3328,065000;1765478442540477;6389,565000;1765478442540477;0
440;1765478442540478;-3328,065000;1765478442540477;6389,565000;1765478442540478;0
441;1765478442540479;-3327,090000;1765478442540479;6389,565000;1765478442540479;0
442;1765478442540480;-3325,335000;1765478442540480;6389,565000;1765478442540480;0
443;1765478442540481;-3326,115000;1765478442540481;6389,565000;1765478442540481;0
444;1765478442540482;-3327,675000;1765478442540482;6389,565000;1765478442540482;0
445;1765478442540483;-3324,165000;1765478442540483;6389,565000;1765478442540483;0
446;1765478442540484;-3324,165000;1765478442540483;-4045,665000;1765478442540484;0
447;1765478442540485;-3328,065000;1765478442540485;5531,955000;1765478442540485;0
448;1765478442540486;-3325,140000;1765478442540486;6389,565000;1765478442540486;0
449;1765478442540487;-3323,190000;1765478442540487;6389,565000;1765478442540487;0
450;1765478442540488;-3328,065000;1765478442540488;6389,565000;1765478442540488;0
451;1765478442540489;-3324,945000;1765478442540489;6389,565000;1765478442540488;0
452;1765478442540490;-3324,945000;1765478442540489;6389,565000;1765478442540490;0
453;1765478442540491;-3326,310000;1765478442540491;6389,565000;1765478442540491;0
454;1765478442540492;-3325,140000;1765478442540492;6389,565000;1765478442540492;0
455;1765478442540493;-3326,895000;1765478442540493;6389,565000;1765478442540493;0
456;1765478442540494;-3327,090000;1765478442540494;6389,565000;1765478442540494;0
457;1765478442540495;-3324,360000;1765478442540495;6389,565000;1765478442540495;0
458;1765478442540501;-3326,700000;1765478442540501;6389,565000;1765478442540501;0
459;1765478442540502;-3326,310000;1765478442540502;6389,565000;1765478442540502;0
460;1765478442540504;-3328,065000;1765478442540504;6389,565000;1765478442540504;0
461;1765478442597685;-3931,785000;1765478442597685;6389,565000;1765478442540504;0
462;1765478442597687;-3931,785000;1765478442597685;4837,950000;1765478442597687;0
463;1765478442597688;-3328,065000;1765478442597688;4837,950000;1765478442597687;0
464;1765478442597689;-3328,650000;1765478442597689;6389,565000;1765478442597689;0
465;1765478442597690;-3324,750000;1765478442597690;6389,565000;1765478442597690;0
466;1765478442597691;-3328,065000;1765478442597691;6389,565000;1765478442597691;0
467;1765478442597692;-3328,455000;1765478442597692;6389,565000;1765478442597692;0
468;1765478442597693;-3328,065000;1765478442597693;6389,565000;1765478442597693;0
469;1765478442597706;-3328,065000;1765478442597693;6389,565000;1765478442597706;0
470;1765478442597707;-3328,065000;1765478442597707;6389,565000;1765478442597706;0
471;1765478442597711;-3323,385000;1765478442597711;6389,565000;1765478442597711;0
472;1765478442597712;-3323,385000;1765478442597711;6386,250000;1765478442597712;0
473;1765478442597713;-3328,065000;1765478442597713;6389,565000;1765478442597713;0
474;1765478442597714;-3326,310000;1765478442597714;6389,565000;1765478442597714;0
475;1765478442597715;-3327,090000;1765478442597715;6389,565000;1765478442597715;0
476;1765478442597716;-3326,115000;1765478442597716;6389,565000;1765478442597715;0
477;1765478442597717;-3328,065000;1765478442597717;6389,565000;1765478442597717;0
478;1765478442597718;-3328,065000;1765478442597717;6389,565000;1765478442597718;0
479;1765478442597719;-3328,065000;1765478442597717;6389,565000;1765478442597719;0
480;1765478442597720;-3323,970000;1765478442597720;6389,565000;1765478442597720;0
481;1765478442597721;-3325,140000;1765478442597721;6389,565000;1765478442597721;0
482;1765478442597722;-3326,505000;1765478442597722;6389,565000;1765478442597721;0
483;1765478442597723;-3328,065000;1765478442597723;6389,565000;1765478442597723;0
484;1765478442597724;-3327,090000;1765478442597724;6389,565000;1765478442597724;0
485;1765478442597725;-3326,505000;1765478442597725;6389,565000;1765478442597725;0
486;1765478442597726;-3324,945000;1765478442597726;6389,565000;1765478442597725;0
487;1765478442597728;-3326,505000;1765478442597728;6389,565000;1765478442597728;0
488;1765478442597729;-3326,895000;1765478442597729;6389,565000;1765478442597729;0
489;1765478442597730;-3323,385000;1765478442597730;6389,565000;1765478442597730;0
490;1765478442597731;-3323,775000;1765478442597731;6389,565000;1765478442597731;0
491;1765478442597732;-3326,505000;1765478442597732;6389,565000;1765478442597732;0
492;1765478442597733;-3326,505000;1765478442597732;-4236,570000;1765478442597733;0
493;1765478442597734;-3327,090000;1765478442597734;6389,565000;1765478442597734;0
494;1765478442597735;-3323,580000;1765478442597735;6389,565000;1765478442597735;0
495;1765478442597736;-3327,090000;1765478442597736;6389,565000;1765478442597736;0
496;1765478442597737;-3329,040000;1765478442597737;6389,565000;1765478442597737;0
497;1765478442597739;-3327,675000;1765478442597739;6389,565000;1765478442597739;0
498;1765478442597740;-3328,260000;1765478442597740;6389,565000;1765478442597740;0
499;1765478442597741;-3327,480000;1765478442597741;6389,565000;1765478442597741;0
500;1765478442597742;-3328,650000;1765478442597742;6389,565000;1765478442597742;0
501;1765478442657657;-3931,785000;1765478442657657;6389,565000;1765478442597742;0
502;1765478442657660;-3931,785000;1765478442657657;6389,565000;1765478442657660;0
503;1765478442657661;-3328,065000;1765478442657661;6389,565000;1765478442657661;0
504;1765478442657663;-3326,895000;1765478442657663;6389,565000;1765478442657663;0
505;1765478442657664;-3326,895000;1765478442657664;6389,565000;1765478442657663;0
506;1765478442657665;-3326,895000;1765478442657664;6389,565000;1765478442657665;0
507;1765478442657666;-3327,870000;1765478442657666;6389,565000;1765478442657666;0
508;1765478442657667;-3323,775000;1765478442657667;6389,565000;1765478442657667;0
509;1765478442657668;-3323,385000;1765478442657668;5898,945000;1765478442657668;0
510;1765478442657669;-3323,970000;1765478442657669;6389,565000;1765478442657669;0
511;1765478442657670;-3328,065000;1765478442657670;5329,155000;1765478442657670;0
512;1765478442657671;-3324,360000;1765478442657671;5329,155000;1765478442657670;0
513;1765478442657672;-3325,920000;1765478442657672;6389,565000;1765478442657672;0
514;1765478442657673;-3327,870000;1765478442657673;6389,565000;1765478442657673;0
515;1765478442657674;-3327,870000;1765478442657673;6389,565000;1765478442657674;0
516;1765478442657675;-3327,870000;1765478442657673;6389,565000;1765478442657675;0
517;1765478442657684;-3326,505000;1765478442657684;6389,565000;1765478442657675;0
518;1765478442657685;-3323,970000;1765478442657685;6389,565000;1765478442657685;0
519;1765478442657686;-3323,970000;1765478442657686;6389,565000;1765478442657686;0
520;1765478442657687;-3327,090000;1765478442657687;6389,565000;1765478442657687;0
521;1765478442657688;-3329,040000;1765478442657688;6389,565000;1765478442657688;0
522;1765478442657689;-3327,870000;1765478442657689;6389,565000;1765478442657689;0
523;1765478442657690;-3328,065000;1765478442657690;6389,565000;1765478442657690;0
524;1765478442657691;-3323,970000;1765478442657691;6389,565000;1765478442657691;0
525;1765478442657697;-3323,970000;1765478442657691;6389,565000;1765478442657697;0
526;1765478442657698;-3323,970000;1765478442657698;6389,565000;1765478442657698;0
527;1765478442657701;-3328,065000;1765478442657701;6389,565000;1765478442657698;0
528;1765478442657702;-3327,090000;1765478442657702;6389,565000;1765478442657702;0
529;1765478442657703;-3325,140000;1765478442657703;6389,565000;1765478442657703;0
530;1765478442657704;-3326,895000;1765478442657704;6389,565000;1765478442657704;0
531;1765478442657705;-3326,895000;1765478442657705;6389,565000;1765478442657705;0
532;1765478442657706;-3326,895000;1765478442657705;6389,565000;1765478442657706;0
533;1765478442657707;-3328,065000;1765478442657707;6282,510000;1765478442657707;0
534;1765478442657708;-3328,455000;1765478442657708;6389,565000;1765478442657708;0
535;1765478442657709;-3323,970000;1765478442657709;6389,565000;1765478442657709;0
536;1765478442657710;-3325,140000;1765478442657710;6389,565000;1765478442657710;0
537;1765478442657735;-3325,140000;1765478442657710;6389,565000;1765478442657735;0
538;1765478442657736;-3324,945000;1765478442657736;6389,565000;1765478442657735;0
539;1765478442657737;-3324,945000;1765478442657736;6389,565000;1765478442657737;0
540;1765478442657742;-3326,310000;1765478442657742;6389,565000;1765478442657742;0
541;1765478442657743;-3325,530000;1765478442657743;6389,565000;1765478442657742;0
542;1765478442657744;-3325,530000;1765478442657743;6389,565000;1765478442657744;0
543;1765478442657745;-3325,725000;1765478442657745;6389,565000;1765478442657744;0
544;1765478442657746;-3324,165000;1765478442657746;6389,565000;1765478442657746;0
545;1765478442657748;-3324,165000;1765478442657746;6389,565000;1765478442657748;0
546;1765478442657749;-3325,530000;1765478442657749;6389,565000;1765478442657749;0
547;1765478442657750;-3322,995000;1765478442657750;6389,565000;1765478442657750;0
548;1765478442717637;-3931,785000;1765478442717637;6389,565000;1765478442657750;0
549;1765478442717640;-3931,785000;1765478442717637;6389,565000;1765478442717640;0
550;1765478442717641;-3325,335000;1765478442717641;6389,565000;1765478442717641;0
551;1765478442717642;-3324,750000;1765478442717642;6389,565000;1765478442717641;0
552;1765478442717643;-3324,165000;1765478442717643;6389,565000;1765478442717643;0
553;1765478442717644;-3326,310000;1765478442717644;6389,565000;1765478442717644;0
554;1765478442717645;-3327,090000;1765478442717645;6389,565000;1765478442717645;0
555;1765478442717646;-3327,675000;1765478442717646;6389,565000;1765478442717646;0
556;1765478442717647;-3326,310000;1765478442717647;6389,565000;1765478442717647;0
557;1765478442717648;-3324,165000;1765478442717648;6389,565000;1765478442717648;0
558;1765478442717649;-3328,650000;1765478442717649;6389,565000;1765478442717648;0
559;1765478442717651;-3328,650000;1765478442717649;6389,565000;1765478442717651;0
560;1765478442717652;-3327,675000;1765478442717652;6389,565000;1765478442717652;0
561;1765478442717653;-3319,485000;1765478442717653;-4058,730000;1765478442717653;0
562;1765478442717658;-3320,460000;1765478442717658;6389,565000;1765478442717658;0
563;1765478442717659;-3326,115000;1765478442717659;6389,565000;1765478442717659;0
564;1765478442717660;-3326,700000;1765478442717660;6389,565000;1765478442717660;0
565;1765478442717661;-3326,700000;1765478442717660;6389,565000;1765478442717661;0
566;1765478442717662;-3328,065000;1765478442717662;6389,565000;1765478442717662;0
567;1765478442717663;-3325,725000;1765478442717663;6389,565000;1765478442717663;0
568;1765478442717664;-3328,065000;1765478442717664;6389,565000;1765478442717664;0
569;1765478442717665;-3325,530000;1765478442717665;6100,770000;1765478442717665;0
570;1765478442717666;-3321,630000;1765478442717666;6389,565000;1765478442717666;0
571;1765478442717667;-3323,970000;1765478442717667;6389,565000;1765478442717667;0
572;1765478442717668;-3324,360000;1765478442717668;6389,565000;1765478442717668;0
573;1765478442717669;-3323,970000;1765478442717669;6389,565000;1765478442717669;0
574;1765478442717670;-3326,505000;1765478442717670;6389,565000;1765478442717670;0
575;1765478442717671;-3326,505000;1765478442717671;6389,565000;1765478442717671;0
576;1765478442717672;-3322,020000;1765478442717672;6389,565000;1765478442717672;0
577;1765478442717673;-3322,020000;1765478442717672;6389,565000;1765478442717673;0
578;1765478442717674;-3327,090000;1765478442717674;6389,565000;1765478442717674;0
579;1765478442717681;-3327,090000;1765478442717674;6389,565000;1765478442717681;0
580;1765478442717682;-3326,895000;1765478442717682;5181,345000;1765478442717682;0
581;1765478442717683;-3324,360000;1765478442717683;6389,565000;1765478442717683;0
582;1765478442717684;-3324,360000;1765478442717684;6389,565000;1765478442717684;0
583;1765478442717685;-3323,775000;1765478442717685;6389,565000;1765478442717685;0
584;1765478442717686;-3323,775000;1765478442717685;6389,565000;1765478442717686;0
585;1765478442778540;-3931,785000;1765478442778540;6389,565000;1765478442717686;0
586;1765478442778548;-3931,785000;1765478442778540;6389,565000;1765478442778548;0
587;1765478442778580;-3326,895000;1765478442778580;6389,565000;1765478442778548;0
588;1765478442778582;-3326,895000;1765478442778580;6389,565000;1765478442778582;0
589;1765478442778584;-3321,630000;1765478442778584;6389,565000;1765478442778582;0
590;1765478442778598;-3321,630000;1765478442778584;6389,565000;1765478442778598;0
591;1765478442778600;-3326,115000;1765478442778600;6389,565000;1765478442778598;0
592;1765478442778601;-3326,115000;1765478442778600;6389,565000;1765478442778601;0
593;1765478442778603;-3323,190000;1765478442778603;6389,565000;1765478442778601;0
594;1765478442778604;-3323,190000;1765478442778603;6389,565000;1765478442778604;0
595;1765478442778605;-3323,970000;1765478442778605;6389,565000;1765478442778604;0
596;1765478442778607;-3323,970000;1765478442778605;6389,565000;1765478442778607;0
597;1765478442778610;-3326,505000;1765478442778610;6389,565000;1765478442778607;0
598;1765478442778615;-3326,505000;1765478442778610;6389,565000;1765478442778615;0
599;1765478442778616;-3326,310000;1765478442778616;6389,565000;1765478442778615;0
600;1765478442778618;-3326,310000;1765478442778616;6389,565000;1765478442778618;0
601;1765478442778619;-3323,970000;1765478442778619;6389,565000;1765478442778618;0
602;1765478442778621;-3323,970000;1765478442778619;6389,565000;1765478442778621;0
603;1765478442778622;-3328,065000;1765478442778622;6389,565000;1765478442778621;0
604;1765478442778623;-3328,065000;1765478442778622;6389,565000;1765478442778623;0
605;1765478442778624;-3326,115000;1765478442778624;6389,565000;1765478442778623;0
606;1765478442778626;-3326,115000;1765478442778624;6389,565000;1765478442778626;0
607;1765478442778627;-3323,580000;1765478442778627;6389,565000;1765478442778626;0
608;1765478442778629;-3323,580000;1765478442778627;6389,565000;1765478442778629;0
609;1765478442778630;-3324,165000;1765478442778630;6389,565000;1765478442778629;0
610;1765478442778631;-3324,165000;1765478442778630;6389,565000;1765478442778631;0
611;1765478442778634;-3325,140000;1765478442778634;6389,565000;1765478442778631;0
612;1765478442778636;-3325,140000;1765478442778634;6389,565000;1765478442778636;0
613;1765478442778637;-3324,165000;1765478442778637;6389,565000;1765478442778636;0
614;1765478442778638;-3324,165000;1765478442778637;6389,565000;1765478442778638;0
615;1765478442778640;-3327,090000;1765478442778640;6389,565000;1765478442778638;0
616;1765478442778641;-3327,090000;1765478442778640;-4176,900000;1765478442778641;0
617;1765478442778647;-3322,605000;1765478442778647;-4176,900000;1765478442778641;0
618;1765478442778648;-3322,605000;1765478442778647;6389,565000;1765478442778648;0
619;1765478442778649;-3327,090000;1765478442778649;6389,565000;1765478442778648;0
620;1765478442778651;-3327,090000;1765478442778649;6389,565000;1765478442778651;0
621;1765478442778652;-3324,165000;1765478442778652;6389,565000;1765478442778651;0
622;1765478442778654;-3324,165000;1765478442778652;6389,565000;1765478442778654;0
623;1765478442778655;-3327,870000;1765478442778655;6389,565000;1765478442778654;0
624;1765478442778656;-3327,870000;1765478442778655;6389,565000;1765478442778656;0
625;1765478442778661;-3327,870000;1765478442778661;6389,565000;1765478442778656;0
626;1765478442778662;-3327,870000;1765478442778661;6389,565000;1765478442778662;0
627;1765478442778664;-3325,140000;1765478442778664;6389,565000;1765478442778662;0
628;1765478442778665;-3325,140000;1765478442778664;6389,565000;1765478442778665;0
629;1765478442778666;-3325,530000;1765478442778666;6389,565000;1765478442778665;0
630;1765478442778668;-3325,530000;1765478442778666;6389,565000;1765478442778668;0
631;1765478442778669;-3323,580000;1765478442778669;6389,565000;1765478442778668;0
632;1765478442778670;-3323,580000;1765478442778669;6389,565000;1765478442778670;0
633;1765478442778672;-3324,165000;1765478442778672;6389,565000;1765478442778670;0
634;1765478442778673;-3324,165000;1765478442778672;6389,565000;1765478442778673;0
635;1765478442778674;-3323,970000;1765478442778674;6389,565000;1765478442778673;0
636;1765478442778675;-3323,970000;1765478442778674;6389,565000;1765478442778675;0
637;1765478442778677;-3328,260000;1765478442778677;6389,565000;1765478442778675;0
638;1765478442778678;-3328,260000;1765478442778677;-4596,930000;1765478442778678;0
639;1765478442778679;-3328,065000;1765478442778679;-4596,930000;1765478442778678;0
640;1765478442778680;-3328,065000;1765478442778679;6389,565000;1765478442778680;0
641;1765478442778682;-3324,165000;1765478442778682;6389,565000;1765478442778680;0
642;1765478442778683;-3324,165000;1765478442778682;6389,565000;1765478442778683;0
643;1765478442778684;-3323,970000;1765478442778684;6389,565000;1765478442778683;0
644;1765478442778685;-3323,970000;1765478442778684;6389,565000;1765478442778685;0
645;1765478442778687;-3328,650000;1765478442778687;6389,565000;1765478442778685;0
646;1765478442778688;-3328,650000;1765478442778687;6389,565000;1765478442778688;0
647;1765478442778689;-3326,505000;1765478442778689;6389,565000;1765478442778688;0
648;1765478442778690;-3326,505000;1765478442778689;6389,565000;1765478442778690;0
649;1765478442778691;-3322,410000;1765478442778691;6389,565000;1765478442778690;0
650;1765478442778693;-3322,410000;1765478442778691;6389,565000;1765478442778693;0
651;1765478442778694;-3324,945000;1765478442778694;6389,565000;1765478442778693;0
652;1765478442778695;-3324,945000;1765478442778694;6389,565000;1765478442778695;0
653;1765478442778696;-3328,065000;1765478442778696;6389,565000;1765478442778695;0
654;1765478442778698;-3328,065000;1765478442778696;6389,565000;1765478442778698;0
655;1765478442778699;-3326,700000;1765478442778699;6389,565000;1765478442778698;0
656;1765478442778700;-3326,700000;1765478442778699;6389,565000;1765478442778700;0
657;1765478442778701;-3327,090000;1765478442778701;6389,565000;1765478442778700;0
658;1765478442778703;-3327,090000;1765478442778701;4284,930000;1765478442778703;0
659;1765478442778704;-3323,970000;1765478442778704;4284,930000;1765478442778703;0
660;1765478442778705;-3323,970000;1765478442778704;6389,565000;1765478442778705;0
661;1765478442778706;-3322,605000;1765478442778706;6389,565000;1765478442778705;0
662;1765478442778723;-3322,605000;1765478442778706;6389,565000;1765478442778723;0
663;1765478442778724;-3323,970000;1765478442778724;6389,565000;1765478442778723;0
664;1765478442778725;-3323,970000;1765478442778724;6389,565000;1765478442778725;0
665;1765478442782406;-3323,970000;1765478442782406;6389,565000;1765478442778725;0
666;1765478442782410;-3323,970000;1765478442782406;6389,565000;1765478442782410;0
667;1765478442782412;-3326,310000;1765478442782412;6389,565000;1765478442782410;0
668;1765478442782413;-3326,310000;1765478442782412;6389,565000;1765478442782413;0
669;1765478442782414;-3327,090000;1765478442782414;6389,565000;1765478442782413;0
670;1765478442782415;-3327,090000;1765478442782414;6389,565000;1765478442782415;0
671;1765478442782416;-3323,970000;1765478442782416;6389,565000;1765478442782415;0
672;1765478442782417;-3323,970000;1765478442782416;5149,170000;1765478442782417;0
673;1765478442782418;-3323,970000;1765478442782416;6389,565000;1765478442782418;0
674;1765478442782419;-3326,115000;1765478442782419;6389,565000;1765478442782418;0
675;1765478442782430;-3326,115000;1765478442782419;6389,565000;1765478442782430;0
676;1765478442782431;-3322,410000;1765478442782431;6389,565000;1765478442782430;0
677;1765478442782432;-3322,410000;1765478442782431;6389,565000;1765478442782432;0
678;1765478442782433;-3323,385000;1765478442782433;6389,565000;1765478442782432;0
679;1765478442782434;-3323,385000;1765478442782433;6389,565000;1765478442782434;0
680;1765478442782435;-3324,165000;1765478442782435;6389,565000;1765478442782434;0
681;1765478442782436;-3324,165000;1765478442782435;6389,565000;1765478442782436;0
682;1765478442782437;-3325,920000;1765478442782437;5495,100000;1765478442782437;0
683;1765478442782438;-3327,870000;1765478442782438;5495,100000;1765478442782437;0
684;1765478442782439;-3327,870000;1765478442782438;6389,565000;1765478442782439;0
685;1765478442782440;-3323,970000;1765478442782440;6389,565000;1765478442782439;0
686;1765478442782441;-3323,970000;1765478442782440;6389,565000;1765478442782441;0
687;1765478442782443;-3326,895000;1765478442782443;6389,565000;1765478442782441;0
688;1765478442782444;-3326,895000;1765478442782443;6389,565000;1765478442782444;0
689;1765478442782445;-3327,675000;1765478442782445;6389,565000;1765478442782445;0
690;1765478442782446;-3323,970000;1765478442782446;6389,565000;1765478442782445;0
691;1765478442782447;-3323,970000;1765478442782446;6389,565000;1765478442782447;0
692;1765478442782448;-3324,165000;1765478442782448;6389,565000;1765478442782447;0
693;1765478442782449;-3324,165000;1765478442782448;6389,565000;1765478442782449;0
694;1765478442782450;-3327,090000;1765478442782450;6389,565000;1765478442782449;0
695;1765478442782451;-3323,970000;1765478442782451;6389,565000;1765478442782451;0
696;1765478442782452;-3323,970000;1765478442782451;6389,565000;1765478442782452;0
697;1765478442782453;-3322,605000;1765478442782453;6389,565000;1765478442782452;0
698;1765478442782454;-3322,605000;1765478442782453;6389,565000;1765478442782454;0
699;1765478442782456;-3324,360000;1765478442782456;6389,565000;1765478442782454;0
700;1765478442782457;-3324,360000;1765478442782456;6389,565000;1765478442782457;0
701;1765478442782458;-3325,530000;1765478442782458;6389,565000;1765478442782458;0
702;1765478442782459;-3321,825000;1765478442782459;6389,565000;1765478442782458;0
703;1765478442782460;-3321,825000;1765478442782459;6389,565000;1765478442782460;0
704;1765478442782461;-3322,020000;1765478442782461;6389,565000;1765478442782460;0
705;1765478442782462;-3322,020000;1765478442782461;6389,565000;1765478442782462;0
706;1765478442782463;-3326,895000;1765478442782463;6389,565000;1765478442782462;0
707;1765478442782464;-3323,580000;1765478442782464;6389,565000;1765478442782464;0
708;1765478442782465;-3323,580000;1765478442782464;6389,565000;1765478442782465;0
709;1765478442782466;-3324,945000;1765478442782466;6389,565000;1765478442782465;0
710;1765478442782467;-3324,945000;1765478442782466;6389,565000;1765478442782467;0
711;1765478442782469;-3326,505000;1765478442782469;6389,565000;1765478442782467;0
712;1765478442782470;-3321,045000;1765478442782470;6389,565000;1765478442782470;0
713;1765478442782471;-3321,045000;1765478442782470;6389,565000;1765478442782471;0
714;1765478442782472;-3323,970000;1765478442782472;6389,565000;1765478442782471;0
715;1765478442782473;-3323,970000;1765478442782472;6389,565000;1765478442782473;0
716;1765478442782474;-3327,090000;1765478442782474;6389,565000;1765478442782473;0
717;1765478442782475;-3323,970000;1765478442782475;6389,565000;1765478442782475;0
718;1765478442782476;-3323,970000;1765478442782475;6389,565000;1765478442782476;0
719;1765478442782489;-3325,140000;1765478442782489;6389,565000;1765478442782476;0
720;1765478442782490;-3325,140000;1765478442782489;6389,565000;1765478442782490;0
721;1765478442782491;-3324,165000;1765478442782491;6389,565000;1765478442782490;0
722;1765478442782492;-3324,165000;1765478442782491;6389,565000;1765478442782492;0
723;1765478442782494;-3330,600000;1765478442782494;6389,565000;1765478442782492;0
724;1765478442782495;-3330,600000;1765478442782494;-4118,010000;1765478442782495;0
725;1765478442782496;-3326,115000;1765478442782496;-4118,010000;1765478442782495;0
726;1765478442782497;-3326,115000;1765478442782496;6389,565000;1765478442782497;0
727;1765478442782498;-3327,675000;1765478442782498;6389,565000;1765478442782498;0
728;1765478442782499;-3324,360000;1765478442782499;6389,565000;1765478442782498;0
729;1765478442782500;-3324,360000;1765478442782499;6389,565000;1765478442782500;0
730;1765478442782501;-3321,825000;1765478442782501;6389,565000;1765478442782500;0
731;1765478442782502;-3321,825000;1765478442782501;6389,565000;1765478442782502;0
732;1765478442837838;-3931,785000;1765478442837838;6389,565000;1765478442782502;0
733;1765478442837842;-3931,785000;1765478442837838;6389,565000;1765478442837842;0
734;1765478442837843;-3324,945000;1765478442837843;6389,565000;1765478442837842;0
735;1765478442837844;-3324,945000;1765478442837843;6389,565000;1765478442837844;0
736;1765478442837845;-3325,530000;1765478442837845;6389,565000;1765478442837844;0
737;1765478442837846;-3324,945000;1765478442837846;6389,565000;1765478442837846;0
738;1765478442837847;-3324,945000;1765478442837846;6389,565000;1765478442837847;0
739;1765478442837848;-3321,630000;1765478442837848;6389,565000;1765478442837848;0
740;1765478442837849;-3327,870000;1765478442837849;6389,565000;1765478442837848;0
741;1765478442837850;-3327,870000;1765478442837849;6389,565000;1765478442837850;0
742;1765478442837851;-3322,410000;1765478442837851;-4277,325000;1765478442837851;0
743;1765478442837852;-3323,775000;1765478442837852;-4277,325000;1765478442837851;0
744;1765478442837854;-3323,775000;1765478442837852;6389,565000;1765478442837854;0
745;1765478442837855;-3323,385000;1765478442837855;6389,565000;1765478442837854;0
746;1765478442837856;-3323,385000;1765478442837855;-4019,730000;1765478442837856;0
747;1765478442837857;-3320,850000;1765478442837857;6389,565000;1765478442837857;0
748;1765478442837858;-3323,970000;1765478442837858;6389,565000;1765478442837857;0
749;1765478442837859;-3323,970000;1765478442837858;6389,565000;1765478442837859;0
750;1765478442837860;-3321,825000;1765478442837860;6389,565000;1765478442837860;0
751;1765478442837861;-3324,945000;1765478442837861;6389,565000;1765478442837860;0
752;1765478442837862;-3325,140000;1765478442837862;6389,565000;1765478442837862;0
753;1765478442837863;-3325,140000;1765478442837862;6389,565000;1765478442837863;0
754;1765478442837864;-3325,140000;1765478442837864;6389,565000;1765478442837864;0
755;1765478442837866;-3318,900000;1765478442837866;6389,565000;1765478442837864;0
756;1765478442837867;-3325,530000;1765478442837867;6389,565000;1765478442837867;0
757;1765478442837868;-3325,530000;1765478442837867;6389,565000;1765478442837868;0
758;1765478442837869;-3323,970000;1765478442837869;6389,565000;1765478442837869;0
759;1765478442837872;-3322,020000;1765478442837872;6389,565000;1765478442837869;0
760;1765478442837873;-3323,970000;1765478442837873;6389,565000;1765478442837873;0
761;1765478442837874;-3323,970000;1765478442837873;6389,565000;1765478442837874;0
762;1765478442837875;-3324,360000;1765478442837875;6389,565000;1765478442837875;0
763;1765478442837876;-3322,410000;1765478442837876;6389,565000;1765478442837875;0
764;1765478442837877;-3324,165000;1765478442837877;6389,565000;1765478442837877;0
765;1765478442837878;-3324,165000;1765478442837877;6389,565000;1765478442837878;0
766;1765478442837879;-3324,360000;1765478442837879;6389,565000;1765478442837879;0
767;1765478442837880;-3324,165000;1765478442837880;6389,565000;1765478442837879;0
768;1765478442837881;-3324,165000;1765478442837880;6389,565000;1765478442837881;0
769;1765478442837882;-3327,090000;1765478442837882;4764,825000;1765478442837882;0
770;1765478442837883;-3323,970000;1765478442837883;4764,825000;1765478442837882;0
771;1765478442837884;-3321,630000;1765478442837884;6389,565000;1765478442837884;0
772;1765478442837885;-3323,970000;1765478442837885;6389,565000;1765478442837885;0
773;1765478442837886;-3323,970000;1765478442837885;6389,565000;1765478442837886;0
774;1765478442837887;-3324,360000;1765478442837887;6389,565000;1765478442837887;0
775;1765478442837888;-3326,895000;1765478442837888;6389,565000;1765478442837887;0
776;1765478442837889;-3323,970000;1765478442837889;6389,565000;1765478442837889;0
777;1765478442837890;-3323,970000;1765478442837889;-4043,715000;1765478442837890;0
778;1765478442837891;-3326,505000;1765478442837891;6389,565000;1765478442837891;0
779;1765478442837892;-3324,360000;1765478442837892;6389,565000;1765478442837891;0
780;1765478442837893;-3323,775000;1765478442837893;6389,565000;1765478442837893;0
781;1765478442837894;-3323,775000;1765478442837893;6389,565000;1765478442837894;0
782;1765478442837895;-3326,505000;1765478442837895;6389,565000;1765478442837895;0
783;1765478442837897;-3322,020000;1765478442837897;6389,565000;1765478442837897;0
784;1765478442837898;-3326,505000;1765478442837898;6389,565000;1765478442837897;0
785;1765478442837899;-3325,140000;1765478442837899;6389,565000;1765478442837899;0
786;1765478442837900;-3325,140000;1765478442837899;3319,680000;1765478442837900;0
787;1765478442897959;-3931,785000;1765478442897959;3319,680000;1765478442837900;0
788;1765478442897963;-3931,785000;1765478442897959;6389,565000;1765478442897963;0
789;1765478442897996;-3327,675000;1765478442897996;6389,565000;1765478442897963;0
790;1765478442897997;-3327,675000;1765478442897996;6389,565000;1765478442897997;0
791;1765478442897998;-3323,190000;1765478442897998;6389,565000;1765478442897997;0
792;1765478442897999;-3323,190000;1765478442897998;-4106,700000;1765478442897999;0
793;1765478442898000;-3326,115000;1765478442898000;6389,565000;1765478442898000;0
794;1765478442898001;-3320,850000;1765478442898001;6389,565000;1765478442898000;0
795;1765478442898002;-3323,385000;1765478442898002;6389,565000;1765478442898002;0
796;1765478442898003;-3323,385000;1765478442898002;-4259,385000;1765478442898003;0
797;1765478442898004;-3326,505000;1765478442898004;6389,565000;1765478442898004;0
798;1765478442898005;-3326,895000;1765478442898005;6389,565000;1765478442898005;0
799;1765478442898006;-3323,970000;1765478442898006;6389,565000;1765478442898005;0
800;1765478442898009;-3323,970000;1765478442898006;6389,565000;1765478442898009;0
801;1765478442898010;-3321,825000;1765478442898010;6389,565000;1765478442898010;0
802;1765478442898011;-3326,310000;1765478442898011;6389,565000;1765478442898010;0
803;1765478442898012;-3323,385000;1765478442898012;6389,565000;1765478442898012;0
804;1765478442898013;-3326,505000;1765478442898013;6143,280000;1765478442898013;0
805;1765478442898014;-3326,505000;1765478442898013;6389,565000;1765478442898014;0
806;1765478442898015;-3323,970000;1765478442898015;6389,565000;1765478442898014;0
807;1765478442898016;-3323,970000;1765478442898016;6389,565000;1765478442898016;0
808;1765478442898017;-3323,970000;1765478442898016;6389,565000;1765478442898017;0
809;1765478442898018;-3325,140000;1765478442898018;6389,565000;1765478442898018;0
810;1765478442898019;-3323,190000;1765478442898019;6389,565000;1765478442898018;0
811;1765478442898020;-3320,850000;1765478442898020;6389,565000;1765478442898020;0
812;1765478442898021;-3320,850000;1765478442898020;5759,325000;1765478442898021;0
813;1765478442898022;-3323,190000;1765478442898022;6389,565000;1765478442898022;0
814;1765478442898023;-3326,310000;1765478442898023;6389,565000;1765478442898023;0
815;1765478442898024;-3322,215000;1765478442898024;6389,565000;1765478442898023;0
816;1765478442898025;-3327,090000;1765478442898025;6389,565000;1765478442898025;0
817;1765478442898026;-3323,775000;1765478442898026;6389,565000;1765478442898026;0
818;1765478442898027;-3322,020000;1765478442898027;-4087,200000;1765478442898027;0
819;1765478442898028;-3322,020000;1765478442898027;6389,565000;1765478442898028;0
820;1765478442898029;-3322,410000;1765478442898029;6389,565000;1765478442898029;0
821;1765478442898030;-3321,825000;1765478442898030;6389,565000;1765478442898030;0
822;1765478442898031;-3325,530000;1765478442898031;6389,565000;1765478442898030;0
823;1765478442898032;-3323,970000;1765478442898032;6389,565000;1765478442898032;0
824;1765478442898033;-3323,385000;1765478442898033;6389,565000;1765478442898033;0
825;1765478442898034;-3323,385000;1765478442898033;6389,565000;1765478442898034;0
826;1765478442898035;-3324,945000;1765478442898035;6389,565000;1765478442898035;0
827;1765478442898036;-3326,700000;1765478442898036;6389,565000;1765478442898035;0
828;1765478442898037;-3324,360000;1765478442898037;6389,565000;1765478442898037;0
829;1765478442898038;-3323,970000;1765478442898038;6389,565000;1765478442898038;0
830;1765478442898039;-3323,970000;1765478442898038;6389,565000;1765478442898039;0
831;1765478442898040;-3323,970000;1765478442898038;6389,565000;1765478442898040;0
832;1765478442898041;-3323,970000;1765478442898041;6389,565000;1765478442898041;0
833;1765478442898042;-3323,970000;1765478442898042;6389,565000;1765478442898042;0
834;1765478442898043;-3322,410000;1765478442898043;6389,565000;1765478442898042;0
835;1765478442898044;-3324,360000;1765478442898044;6389,565000;1765478442898044;0
836;1765478442898045;-3322,995000;1765478442898045;6389,565000;1765478442898045;0
837;1765478442898046;-3322,995000;1765478442898045;5969,535000;1765478442898046;0
838;1765478442898047;-3324,360000;1765478442898047;6389,565000;1765478442898047;0
839;1765478442898048;-3324,360000;1765478442898048;6389,565000;1765478442898048;0
840;1765478442958181;-3320,850000;1765478442958181;6389,565000;1765478442898048;0
841;1765478442958187;-3320,850000;1765478442958181;6389,565000;1765478442958187;0
842;1765478442958189;-3326,310000;1765478442958189;6389,565000;1765478442958187;0
843;1765478442958190;-3326,310000;1765478442958189;6389,565000;1765478442958190;0
844;1765478442958192;-3320,460000;1765478442958192;6389,565000;1765478442958190;0
845;1765478442958193;-3320,460000;1765478442958192;6389,565000;1765478442958193;0
846;1765478442958194;-3323,385000;1765478442958194;6389,565000;1765478442958193;0
847;1765478442958195;-3323,385000;1765478442958194;6389,565000;1765478442958195;0
848;1765478442958196;-3324,945000;1765478442958196;6389,565000;1765478442958195;0
849;1765478442958198;-3324,945000;1765478442958196;6389,565000;1765478442958198;0
850;1765478442958199;-3321,825000;1765478442958199;6389,565000;1765478442958198;0
851;1765478442958200;-3321,825000;1765478442958199;6389,565000;1765478442958200;0
852;1765478442958203;-3324,360000;1765478442958203;6389,565000;1765478442958200;0
853;1765478442958204;-3324,360000;1765478442958203;6389,565000;1765478442958204;0
854;1765478442958206;-3324,750000;1765478442958206;6389,565000;1765478442958204;0
855;1765478442958207;-3324,750000;1765478442958206;6389,565000;1765478442958207;0
856;1765478442958209;-3326,505000;1765478442958209;6389,565000;1765478442958207;0
857;1765478442958210;-3326,505000;1765478442958209;6389,565000;1765478442958210;0
858;1765478442958211;-3324,165000;1765478442958211;6389,565000;1765478442958210;0
859;1765478442958212;-3324,165000;1765478442958211;6389,565000;1765478442958212;0
860;1765478442958213;-3327,870000;1765478442958213;6389,565000;1765478442958212;0
861;1765478442958214;-3327,870000;1765478442958213;6389,565000;1765478442958214;0
862;1765478442958215;-3326,700000;1765478442958215;6389,565000;1765478442958214;0
863;1765478442958216;-3326,700000;1765478442958215;6389,565000;1765478442958216;0
864;1765478442958217;-3326,310000;1765478442958217;6389,565000;1765478442958216;0
865;1765478442958218;-3326,310000;1765478442958217;6389,565000;1765478442958218;0
866;1765478442958220;-3326,310000;1765478442958217;6389,565000;1765478442958220;0
867;1765478442958222;-3325,530000;1765478442958222;6389,565000;1765478442958220;0
868;1765478442958223;-3325,530000;1765478442958222;6389,565000;1765478442958223;0
869;1765478442958224;-3324,945000;1765478442958224;6389,565000;1765478442958223;0
870;1765478442958225;-3324,945000;1765478442958224;94,575000;1765478442958225;0
871;1765478442958227;-3323,190000;1765478442958227;94,575000;1765478442958225;0
872;1765478442958228;-3323,190000;1765478442958227;6389,565000;1765478442958228;0
873;1765478442958229;-3321,825000;1765478442958229;6389,565000;1765478442958228;0
874;1765478442958230;-3321,825000;1765478442958229;6389,565000;1765478442958230;0
875;1765478442958231;-3324,165000;1765478442958231;6389,565000;1765478442958230;0
876;1765478442958232;-3324,165000;1765478442958231;6389,565000;1765478442958232;0
877;1765478442958233;-3324,360000;1765478442958233;6389,565000;1765478442958232;0
878;1765478442958234;-3324,360000;1765478442958233;6389,565000;1765478442958234;0
879;1765478442958235;-3323,190000;1765478442958235;6389,565000;1765478442958234;0
880;1765478442958236;-3323,190000;1765478442958235;6389,565000;1765478442958236;0
881;1765478442958237;-3323,190000;1765478442958235;6389,565000;1765478442958237;0
882;1765478442958239;-3324,165000;1765478442958239;6389,565000;1765478442958237;0
883;1765478442958240;-3324,165000;1765478442958239;6389,565000;1765478442958240;0
884;1765478442958242;-3323,970000;1765478442958242;6389,565000;1765478442958240;0
885;1765478442958243;-3323,970000;1765478442958242;6389,565000;1765478442958243;0
886;1765478442958244;-3323,385000;1765478442958244;6389,565000;1765478442958243;0
887;1765478442958245;-3323,385000;1765478442958244;6389,565000;1765478442958245;0
888;1765478442958246;-3326,505000;1765478442958246;6389,565000;1765478442958245;0
889;1765478442958247;-3326,505000;1765478442958246;6389,565000;1765478442958247;0
890;1765478442958279;-3327,090000;1765478442958279;6389,565000;1765478442958247;0
891;1765478442958280;-3327,090000;1765478442958279;5389,410000;1765478442958280;0
892;1765478442958281;-3323,190000;1765478442958281;5389,410000;1765478442958280;0
893;1765478442958282;-3323,190000;1765478442958281;6389,565000;1765478442958282;0
894;1765478442958283;-3321,435000;1765478442958283;6389,565000;1765478442958282;0
895;1765478442958284;-3321,435000;1765478442958283;6389,565000;1765478442958284;0
896;1765478442958285;-3321,435000;1765478442958283;6389,565000;1765478442958285;0
897;1765478442958287;-3327,090000;1765478442958287;6389,565000;1765478442958285;0
898;1765478442958288;-3327,090000;1765478442958287;6389,565000;1765478442958288;0
899;1765478442958289;-3323,775000;1765478442958289;6389,565000;1765478442958288;0
900;1765478442958290;-3323,775000;1765478442958289;6389,565000;1765478442958290;0
901;1765478442958291;-3323,775000;1765478442958291;6389,565000;1765478442958290;0
902;1765478442958292;-3323,775000;1765478442958291;6389,565000;1765478442958292;0
903;1765478442958293;-3325,725000;1765478442958293;6389,565000;1765478442958292;0
904;1765478442958294;-3325,725000;1765478442958293;6098,235000;1765478442958294;0
905;1765478442958295;-3323,190000;1765478442958295;6098,235000;1765478442958294;0
906;1765478442958296;-3324,945000;1765478442958296;6389,565000;1765478442958296;0
907;1765478442958297;-3324,945000;1765478442958296;6389,565000;1765478442958297;0
908;1765478442958298;-3322,995000;1765478442958298;6389,565000;1765478442958297;0
909;1765478442958300;-3324,165000;1765478442958300;6389,565000;1765478442958300;0
910;1765478442958302;-3324,165000;1765478442958300;6389,565000;1765478442958302;0
911;1765478442958303;-3318,705000;1765478442958303;6389,565000;1765478442958302;0
912;1765478442958304;-3323,970000;1765478442958304;6389,565000;1765478442958304;0
913;1765478442958305;-3323,970000;1765478442958304;6389,565000;1765478442958305;0
914;1765478442958307;-3321,825000;1765478442958307;6389,565000;1765478442958305;0
915;1765478442958309;-3321,825000;1765478442958307;6389,565000;1765478442958309;0
916;1765478442961875;-3931,785000;1765478442961875;6389,565000;1765478442958309;0
917;1765478442961882;-3931,785000;1765478442961875;6389,565000;1765478442961882;0
918;1765478442961884;-3320,850000;1765478442961884;6389,565000;1765478442961882;0
919;1765478442961885;-3320,850000;1765478442961884;-4111,185000;1765478442961885;0
920;1765478442961888;-3325,725000;1765478442961888;-4111,185000;1765478442961885;0
921;1765478442961890;-3325,725000;1765478442961888;6389,565000;1765478442961890;0
922;1765478442961891;-3321,825000;1765478442961891;6389,565000;1765478442961890;0
923;1765478442961893;-3321,825000;1765478442961891;6389,565000;1765478442961893;0
924;1765478442961895;-3319,680000;1765478442961895;6389,565000;1765478442961893;0
925;1765478442961897;-3319,680000;1765478442961895;6389,565000;1765478442961897;0
926;1765478442961899;-3323,385000;1765478442961899;6389,565000;1765478442961897;0
927;1765478442961900;-3323,385000;1765478442961899;6389,565000;1765478442961900;0
928;1765478442961902;-3326,895000;1765478442961902;6389,565000;1765478442961900;0
929;1765478442961904;-3326,895000;1765478442961902;-4019,145000;1765478442961904;0
930;1765478442961906;-3323,775000;1765478442961906;-4019,145000;1765478442961904;0
931;1765478442961908;-3323,775000;1765478442961906;6389,565000;1765478442961908;0
932;1765478442961909;-3322,020000;1765478442961909;6389,565000;1765478442961908;0
933;1765478442961911;-3322,020000;1765478442961909;6389,565000;1765478442961911;0
934;1765478442961913;-3326,115000;1765478442961913;6389,565000;1765478442961911;0
935;1765478442961915;-3326,115000;1765478442961913;6389,565000;1765478442961915;0
936;1765478442961916;-3319,290000;1765478442961916;6389,565000;1765478442961915;0
937;1765478442961918;-3319,290000;1765478442961916;6118,710000;1765478442961918;0
938;1765478442961920;-3323,970000;1765478442961920;6118,710000;1765478442961918;0
939;1765478442961922;-3323,970000;1765478442961920;-4316,520000;1765478442961922;0
940;1765478442961924;-3323,385000;1765478442961924;-4316,520000;1765478442961922;0
941;1765478442961926;-3323,385000;1765478442961924;6389,565000;1765478442961926;0
942;1765478442961928;-3321,435000;1765478442961928;6389,565000;1765478442961926;0
943;1765478442961930;-3321,435000;1765478442961928;-4412,850000;1765478442961930;0
944;1765478442961931;-3324,945000;1765478442961931;-4412,850000;1765478442961930;0
945;1765478442961933;-3324,945000;1765478442961931;6389,565000;1765478442961933;0
946;1765478442961935;-3321,825000;1765478442961935;6389,565000;1765478442961933;0
947;1765478442961938;-3321,825000;1765478442961935;6389,565000;1765478442961938;0
948;1765478442961940;-3323,970000;1765478442961940;6389,565000;1765478442961938;0
949;1765478442961941;-3323,970000;1765478442961940;6389,565000;1765478442961941;0
950;1765478442961943;-3323,970000;1765478442961940;6389,565000;1765478442961943;0
951;1765478442961945;-3321,435000;1765478442961945;6389,565000;1765478442961943;0
952;1765478442961946;-3321,435000;1765478442961945;6389,565000;1765478442961946;0
953;1765478442961948;-3321,825000;1765478442961948;6389,565000;1765478442961946;0
954;1765478442961955;-3321,825000;1765478442961948;6389,565000;1765478442961955;0
955;1765478442961956;-3323,385000;1765478442961956;6389,565000;1765478442961955;0
956;1765478442961957;-3323,385000;1765478442961956;6389,565000;1765478442961957;0
957;1765478442961958;-3320,265000;1765478442961958;6389,565000;1765478442961957;0
958;1765478442961959;-3320,265000;1765478442961958;6389,565000;1765478442961959;0
959;1765478442961960;-3326,310000;1765478442961960;6389,565000;1765478442961959;0
960;1765478442961962;-3326,310000;1765478442961960;6389,565000;1765478442961962;0
961;1765478442961963;-3324,360000;1765478442961963;6389,565000;1765478442961962;0
962;1765478442961964;-3324,360000;1765478442961963;6389,565000;1765478442961964;0
963;1765478442961965;-3323,190000;1765478442961965;6389,565000;1765478442961964;0
964;1765478442961966;-3323,190000;1765478442961965;6389,565000;1765478442961966;0
965;1765478442961968;-3323,190000;1765478442961965;6389,565000;1765478442961968;0
966;1765478442961969;-3320,850000;1765478442961969;6389,565000;1765478442961968;0
967;1765478442961970;-3320,850000;1765478442961969;6389,565000;1765478442961970;0
968;1765478442961971;-3323,580000;1765478442961971;6389,565000;1765478442961970;0
969;1765478442961973;-3323,580000;1765478442961971;6389,565000;1765478442961973;0
970;1765478442961974;-3327,285000;1765478442961974;6389,565000;1765478442961973;0
971;1765478442961975;-3327,285000;1765478442961974;6389,565000;1765478442961975;0
972;1765478442961976;-3322,020000;1765478442961976;6389,565000;1765478442961975;0
973;1765478442961977;-3322,020000;1765478442961976;6389,565000;1765478442961977;0
974;1765478442961978;-3324,165000;1765478442961978;6389,565000;1765478442961977;0
975;1765478442961979;-3324,165000;1765478442961978;6389,565000;1765478442961979;0
976;1765478442961980;-3320,850000;1765478442961980;6389,565000;1765478442961979;0
977;1765478442961981;-3320,850000;1765478442961980;6389,565000;1765478442961981;0
978;1765478442961983;-3321,630000;1765478442961983;6389,565000;1765478442961981;0
979;1765478442961984;-3321,630000;1765478442961983;6389,565000;1765478442961984;0
980;1765478442961986;-3321,630000;1765478442961983;6389,565000;1765478442961986;0
981;1765478442961987;-3324,945000;1765478442961987;6389,565000;1765478442961986;0
982;1765478442961988;-3324,945000;1765478442961987;6389,565000;1765478442961988;0
983;1765478442961989;-3323,775000;1765478442961989;6389,565000;1765478442961988;0
984;1765478442961990;-3323,775000;1765478442961989;6389,565000;1765478442961990;0
985;1765478442961991;-3326,505000;1765478442961991;6389,565000;1765478442961990;0
986;1765478442961992;-3326,505000;1765478442961991;6389,565000;1765478442961992;0
987;1765478442961994;-3323,970000;1765478442961994;6389,565000;1765478442961992;0
988;1765478442961995;-3323,970000;1765478442961994;6389,565000;1765478442961995;0
989;1765478442961996;-3323,190000;1765478442961996;6389,565000;1765478442961995;0
990;1765478442961997;-3323,190000;1765478442961996;6389,565000;1765478442961997;0
991;1765478442961998;-3321,825000;1765478442961998;6389,565000;1765478442961997;0
992;1765478442961999;-3321,825000;1765478442961998;6389,565000;1765478442961999;0
993;1765478442962000;-3320,850000;1765478442962000;6389,565000;1765478442961999;0
994;1765478442962001;-3320,850000;1765478442962000;-4195,230000;1765478442962001;0
995;1765478442962002;-3323,775000;1765478442962002;-4195,230000;1765478442962001;0
996;1765478442962004;-3323,775000;1765478442962002;6389,565000;1765478442962004;0
997;1765478443018107;-3931,785000;1765478443018107;6389,565000;1765478442962004;0
998;1765478443018111;-3931,785000;1765478443018107;6389,565000;1765478443018111;0
999;1765478443018112;-3323,970000;1765478443018112;6389,565000;1765478443018111;0
1000;1765478443018113;-3323,970000;1765478443018112;6389,565000;1765478443018113;0
1001;1765478443018115;-3324,945000;1765478443018115;6389,565000;1765478443018113;0
1002;1765478443018116;-3324,945000;1765478443018115;6389,565000;1765478443018116;0
1003;1765478443018117;-3324,165000;1765478443018117;6389,565000;1765478443018116;0
1004;1765478443018118;-3324,165000;1765478443018117;6389,565000;1765478443018118;0
1005;1765478443018119;-3321,825000;1765478443018119;6389,565000;1765478443018118;0
1006;1765478443018121;-3321,825000;1765478443018119;6389,565000;1765478443018121;0
1007;1765478443018122;-3321,825000;1765478443018119;6389,565000;1765478443018122;0
1008;1765478443018124;-3324,945000;1765478443018124;6389,565000;1765478443018122;0
1009;1765478443018125;-3324,945000;1765478443018124;6389,565000;1765478443018125;0
1010;1765478443018127;-3321,435000;1765478443018127;6389,565000;1765478443018125;0
1011;1765478443018128;-3321,435000;1765478443018127;6389,565000;1765478443018128;0
1012;1765478443018129;-3323,385000;1765478443018129;6389,565000;1765478443018128;0
1013;1765478443018131;-3323,385000;1765478443018129;6389,565000;1765478443018131;0
1014;1765478443018132;-3321,630000;1765478443018132;6389,565000;1765478443018131;0
1015;1765478443018133;-3321,630000;1765478443018132;6389,565000;1765478443018133;0
1016;1765478443018134;-3322,410000;1765478443018134;6389,565000;1765478443018133;0
1017;1765478443018135;-3323,970000;1765478443018135;6389,565000;1765478443018135;0
1018;1765478443018136;-3323,970000;1765478443018135;6389,565000;1765478443018136;0
1019;1765478443018137;-3325,530000;1765478443018137;6389,565000;1765478443018136;0
1020;1765478443018138;-3325,530000;1765478443018137;6389,565000;1765478443018138;0
1021;1765478443018139;-3323,385000;1765478443018139;6389,565000;1765478443018138;0
1022;1765478443018140;-3323,385000;1765478443018139;6389,565000;1765478443018140;0
1023;1765478443018141;-3321,825000;1765478443018141;6389,565000;1765478443018140;0
1024;1765478443018142;-3322,020000;1765478443018142;6389,565000;1765478443018142;0
1025;1765478443018143;-3322,020000;1765478443018142;5810,610000;1765478443018143;0
1026;1765478443018144;-3322,410000;1765478443018144;6389,565000;1765478443018144;0
1027;1765478443018145;-3321,630000;1765478443018145;6389,565000;1765478443018144;0
1028;1765478443018146;-3324,360000;1765478443018146;6389,565000;1765478443018146;0
1029;1765478443018147;-3324,360000;1765478443018146;6389,565000;1765478443018147;0
1030;1765478443018148;-3320,850000;1765478443018148;6389,565000;1765478443018148;0
1031;1765478443018150;-3323,385000;1765478443018150;6389,565000;1765478443018148;0
1032;1765478443018151;-3321,825000;1765478443018151;-4516,590000;1765478443018151;0
1033;1765478443018159;-3321,825000;1765478443018151;6389,565000;1765478443018159;0
1034;1765478443018160;-3325,530000;1765478443018160;6389,565000;1765478443018159;0
1035;1765478443018161;-3325,530000;1765478443018160;6389,565000;1765478443018161;0
1036;1765478443018162;-3322,020000;1765478443018162;6389,565000;1765478443018162;0
1037;1765478443018163;-3324,360000;1765478443018163;6389,565000;1765478443018162;0
1038;1765478443018164;-3323,970000;1765478443018164;6389,565000;1765478443018164;0
1039;1765478443018165;-3323,970000;1765478443018164;6389,565000;1765478443018165;0
1040;1765478443018166;-3323,190000;1765478443018166;6389,565000;1765478443018166;0
1041;1765478443018168;-3323,190000;1765478443018168;6389,565000;1765478443018166;0
1042;1765478443018169;-3323,970000;1765478443018169;6389,565000;1765478443018169;0
1043;1765478443018170;-3323,970000;1765478443018169;6389,565000;1765478443018170;0
1044;1765478443018171;-3320,850000;1765478443018171;6389,565000;1765478443018171;0
1045;1765478443018172;-3326,895000;1765478443018172;6389,565000;1765478443018171;0
1046;1765478443018173;-3322,800000;1765478443018173;6389,565000;1765478443018173;0
1047;1765478443018174;-3322,800000;1765478443018173;6389,565000;1765478443018174;0
1048;1765478443018175;-3323,385000;1765478443018175;6389,565000;1765478443018174;0
1049;1765478443018176;-3323,385000;1765478443018176;-4014,075000;1765478443018176;0
1050;1765478443018177;-3323,385000;1765478443018176;6389,565000;1765478443018177;0
1051;1765478443018178;-3323,385000;1765478443018176;6389,565000;1765478443018178;0
1052;1765478443018179;-3318,705000;1765478443018179;6389,565000;1765478443018179;0
1053;1765478443018180;-3323,970000;1765478443018180;6389,565000;1765478443018179;0
1054;1765478443018181;-3323,970000;1765478443018180;6389,565000;1765478443018181;0
1055;1765478443018182;-3321,435000;1765478443018182;6389,565000;1765478443018182;0
1056;1765478443018183;-3325,140000;1765478443018183;6389,565000;1765478443018182;0
1057;1765478443018184;-3325,140000;1765478443018183;6389,565000;1765478443018184;0
1058;1765478443137885;-3931,785000;1765478443137885;6389,565000;1765478443018184;0
1059;1765478443137889;-3931,785000;1765478443137885;6389,565000;1765478443137889;0
1060;1765478443137891;-3931,785000;1765478443137885;6024,135000;1765478443137891;0
1061;1765478443137892;-3322,020000;1765478443137892;6024,135000;1765478443137891;0
1062;1765478443137893;-3322,020000;1765478443137892;6389,565000;1765478443137893;0
1063;1765478443137894;-3323,970000;1765478443137894;6389,565000;1765478443137893;0
1064;1765478443137895;-3323,970000;1765478443137894;6389,565000;1765478443137895;0
1065;1765478443137900;-3322,020000;1765478443137900;6389,565000;1765478443137895;0
1066;1765478443137901;-3324,165000;1765478443137901;6389,565000;1765478443137901;0
1067;1765478443137902;-3324,165000;1765478443137901;6389,565000;1765478443137902;0
1068;1765478443137903;-3324,360000;1765478443137903;6389,565000;1765478443137902;0
1069;1765478443137904;-3322,020000;1765478443137904;6389,565000;1765478443137904;0
1070;1765478443137905;-3322,020000;1765478443137904;6389,565000;1765478443137905;0
1071;1765478443137906;-3321,825000;1765478443137906;6389,565000;1765478443137906;0
1072;1765478443137907;-3323,970000;1765478443137907;6389,565000;1765478443137906;0
1073;1765478443137908;-3323,970000;1765478443137907;6389,565000;1765478443137908;0
1074;1765478443137909;-3323,385000;1765478443137909;6389,565000;1765478443137909;0
1075;1765478443137910;-3318,705000;1765478443137910;6389,565000;1765478443137909;0
1076;1765478443137911;-3321,825000;1765478443137911;6389,565000;1765478443137911;0
1077;1765478443137912;-3321,825000;1765478443137911;6389,565000;1765478443137912;0
1078;1765478443137913;-3322,995000;1765478443137913;5827,770000;1765478443137913;0
1079;1765478443137914;-3323,385000;1765478443137914;5827,770000;1765478443137913;0
1080;1765478443137915;-3323,775000;1765478443137915;6389,565000;1765478443137915;0
1081;1765478443137916;-3323,775000;1765478443137915;6389,565000;1765478443137916;0
1082;1765478443137917;-3321,825000;1765478443137917;6389,565000;1765478443137916;0
1083;1765478443137918;-3321,825000;1765478443137918;6389,565000;1765478443137918;0
1084;1765478443137919;-3321,825000;1765478443137918;6389,565000;1765478443137919;0
1085;1765478443137920;-3319,680000;1765478443137920;6389,565000;1765478443137919;0
1086;1765478443137921;-3322,410000;1765478443137921;6389,565000;1765478443137921;0
1087;1765478443137922;-3322,410000;1765478443137921;6389,565000;1765478443137922;0
1088;1765478443137923;-3320,850000;1765478443137923;5967,585000;1765478443137923;0
1089;1765478443137924;-3323,970000;1765478443137924;5967,585000;1765478443137923;0
1090;1765478443137925;-3323,970000;1765478443137925;6389,565000;1765478443137925;0
1091;1765478443137926;-3323,970000;1765478443137925;6389,565000;1765478443137926;0
1092;1765478443137927;-3321,630000;1765478443137927;6389,565000;1765478443137927;0
1093;1765478443137928;-3323,385000;1765478443137928;6389,565000;1765478443137927;0
1094;1765478443137929;-3321,825000;1765478443137929;6389,565000;1765478443137929;0
1095;1765478443137937;-3321,825000;1765478443137929;6389,565000;1765478443137937;0
1096;1765478443137938;-3322,605000;1765478443137938;6389,565000;1765478443137937;0
1097;1765478443137939;-3322,605000;1765478443137938;6389,565000;1765478443137939;0
1098;1765478443137940;-3322,995000;1765478443137940;6389,565000;1765478443137940;0
1099;1765478443137941;-3320,655000;1765478443137941;6389,565000;1765478443137940;0
1100;1765478443137942;-3321,825000;1765478443137942;6389,565000;1765478443137942;0
1101;1765478443137943;-3321,825000;1765478443137942;6389,565000;1765478443137943;0
1102;1765478443137956;-3321,825000;1765478443137942;6389,565000;1765478443137956;0
1103;1765478443137957;-3320,850000;1765478443137957;6389,565000;1765478443137956;0
1104;1765478443137958;-3323,970000;1765478443137958;6389,565000;1765478443137958;0
1105;1765478443137959;-3323,970000;1765478443137958;6389,565000;1765478443137959;0
1106;1765478443137960;-3322,020000;1765478443137960;6389,565000;1765478443137959;0
1107;1765478443137961;-3322,410000;1765478443137961;6389,565000;1765478443137961;0
1108;1765478443137962;-3322,410000;1765478443137961;6389,565000;1765478443137962;0
1109;1765478443137963;-3322,410000;1765478443137963;6389,565000;1765478443137963;0
1110;1765478443137964;-3320,265000;1765478443137964;6389,565000;1765478443137963;0
1111;1765478443137965;-3323,970000;1765478443137965;6389,565000;1765478443137965;0
1112;1765478443137966;-3323,970000;1765478443137965;-4492,995000;1765478443137966;0
1113;1765478443137967;-3321,435000;1765478443137967;6389,565000;1765478443137967;0
1114;1765478443137968;-3326,310000;1765478443137968;6389,565000;1765478443137967;0
1115;1765478443137969;-3322,410000;1765478443137969;6389,565000;1765478443137969;0
1116;1765478443137970;-3322,410000;1765478443137969;3614,715000;1765478443137970;0
1117;1765478443137971;-3320,460000;1765478443137971;6389,565000;1765478443137971;0
1118;1765478443140760;-3931,785000;1765478443140760;6389,565000;1765478443137971;0
1119;1765478443140763;-3931,785000;1765478443140760;6389,565000;1765478443140763;0
1120;1765478443140766;-3321,825000;1765478443140766;6389,565000;1765478443140763;0
1121;1765478443140767;-3321,825000;1765478443140766;6389,565000;1765478443140767;0
1122;1765478443140768;-3321,630000;1765478443140768;6389,565000;1765478443140767;0
1123;1765478443140770;-3321,630000;1765478443140768;6389,565000;1765478443140770;0
1124;1765478443140771;-3320,265000;1765478443140771;6389,565000;1765478443140770;0
1125;1765478443140772;-3323,385000;1765478443140772;6389,565000;1765478443140772;0
1126;1765478443140773;-3323,385000;1765478443140772;6389,565000;1765478443140773;0
1127;1765478443140774;-3325,530000;1765478443140774;6389,565000;1765478443140774;0
1128;1765478443140780;-3323,385000;1765478443140780;6389,565000;1765478443140774;0
1129;1765478443140781;-3323,385000;1765478443140780;6389,565000;1765478443140781;0
1130;1765478443140782;-3323,970000;1765478443140782;6389,565000;1765478443140782;0
1131;1765478443140783;-3323,775000;1765478443140783;6389,565000;1765478443140782;0
1132;1765478443140784;-3320,850000;1765478443140784;5187,390000;1765478443140784;0
1133;1765478443140785;-3322,215000;1765478443140785;6389,565000;1765478443140785;0
1134;1765478443140786;-3322,215000;1765478443140785;-4070,625000;1765478443140786;0
1135;1765478443140787;-3320,850000;1765478443140787;6389,565000;1765478443140787;0
1136;1765478443140788;-3321,825000;1765478443140788;6389,565000;1765478443140788;0
1137;1765478443140789;-3323,385000;1765478443140789;6389,565000;1765478443140788;0
1138;1765478443140790;-3320,265000;1765478443140790;6389,565000;1765478443140790;0
1139;1765478443140791;-3320,265000;1765478443140790;6389,565000;1765478443140791;0
1140;1765478443140792;-3322,605000;1765478443140792;6389,565000;1765478443140792;0
1141;1765478443140793;-3322,605000;1765478443140792;6389,565000;1765478443140793;0
1142;1765478443140794;-3322,215000;1765478443140794;6389,565000;1765478443140794;0
1143;1765478443140795;-3323,190000;1765478443140795;6389,565000;1765478443140795;0
1144;1765478443140796;-3321,045000;1765478443140796;6389,565000;1765478443140795;0
1145;1765478443140797;-3321,825000;1765478443140797;6389,565000;1765478443140797;0
1146;1765478443140798;-3321,825000;1765478443140798;6389,565000;1765478443140798;0
1147;1765478443140799;-3321,825000;1765478443140799;6389,565000;1765478443140799;0
1148;1765478443140800;-3321,825000;1765478443140799;6389,565000;1765478443140800;0
1149;1765478443140801;-3321,825000;1765478443140799;6389,565000;1765478443140801;0
1150;1765478443140802;-3318,510000;1765478443140802;6389,565000;1765478443140802;0
1151;1765478443140805;-3321,630000;1765478443140805;6389,565000;1765478443140802;0
1152;1765478443140806;-3321,630000;1765478443140805;6389,565000;1765478443140806;0
1153;1765478443140807;-3322,020000;1765478443140807;6389,565000;1765478443140807;0
1154;1765478443140808;-3319,290000;1765478443140808;6389,565000;1765478443140807;0
1155;1765478443140810;-3319,290000;1765478443140808;6389,565000;1765478443140810;0
1156;1765478443140811;-3318,900000;1765478443140811;6389,565000;1765478443140811;0
1157;1765478443140812;-3323,190000;1765478443140812;6389,565000;1765478443140811;0
1158;1765478443140813;-3320,265000;1765478443140813;6389,565000;1765478443140813;0
1159;1765478443140814;-3320,265000;1765478443140813;6389,565000;1765478443140814;0
1160;1765478443140815;-3320,265000;1765478443140813;6389,565000;1765478443140815;0
1161;1765478443140816;-3323,775000;1765478443140816;6389,565000;1765478443140816;0
1162;1765478443140817;-3322,020000;1765478443140817;6389,565000;1765478443140816;0
1163;1765478443140818;-3320,265000;1765478443140818;6389,565000;1765478443140818;0
1164;1765478443140819;-3323,385000;1765478443140819;6389,565000;1765478443140819;0
1165;1765478443140820;-3320,850000;1765478443140820;6389,565000;1765478443140820;0
1166;1765478443140821;-3320,850000;1765478443140820;6389,565000;1765478443140821;0
1167;1765478443140822;-3323,775000;1765478443140822;6389,565000;1765478443140822;0
1168;1765478443140823;-3324,750000;1765478443140823;6389,565000;1765478443140822;0
1169;1765478443140928;-3324,750000;1765478443140823;6389,565000;1765478443140928;0
1170;1765478443140931;-3324,750000;1765478443140823;6389,565000;1765478443140931;0
1171;1765478443140932;-3322,995000;1765478443140932;6389,565000;1765478443140931;0
1172;1765478443140933;-3322,995000;1765478443140932;6389,565000;1765478443140933;0
1173;1765478443197625;-3931,785000;1765478443197625;6389,565000;1765478443140933;0
1174;1765478443197628;-3931,785000;1765478443197625;6389,565000;1765478443197628;0
1175;1765478443197629;-3323,775000;1765478443197629;6389,565000;1765478443197629;0
1176;1765478443197630;-3325,140000;1765478443197630;6389,565000;1765478443197629;0
1177;1765478443197631;-3321,825000;1765478443197631;6389,565000;1765478443197631;0
1178;1765478443197632;-3321,825000;1765478443197632;6389,565000;1765478443197632;0
1179;1765478443197633;-3321,825000;1765478443197633;6389,565000;1765478443197633;0
1180;1765478443197634;-3321,045000;1765478443197634;6389,565000;1765478443197634;0
1181;1765478443197635;-3321,045000;1765478443197635;6389,565000;1765478443197635;0
1182;1765478443197636;-3328,260000;1765478443197636;6389,565000;1765478443197636;0
1183;1765478443197637;-3321,825000;1765478443197637;6389,565000;1765478443197637;0
1184;1765478443197638;-3321,435000;1765478443197638;6389,565000;1765478443197638;0
1185;1765478443197639;-3320,850000;1765478443197639;6389,565000;1765478443197639;0
1186;1765478443197640;-3320,850000;1765478443197640;6389,565000;1765478443197640;0
1187;1765478443197641;-3323,190000;1765478443197641;6389,565000;1765478443197641;0
1188;1765478443197642;-3318,120000;1765478443197642;6389,565000;1765478443197642;0
1189;1765478443197643;-3320,655000;1765478443197643;2714,010000;1765478443197643;0
1190;1765478443197644;-3321,045000;1765478443197644;6389,565000;1765478443197644;0
1191;1765478443197645;-3323,580000;1765478443197645;6389,565000;1765478443197645;0
1192;1765478443197646;-3323,775000;1765478443197646;6389,565000;1765478443197646;0
1193;1765478443197647;-3322,410000;1765478443197647;6389,565000;1765478443197646;0
1194;1765478443197648;-3322,020000;1765478443197648;6389,565000;1765478443197648;0
1195;1765478443197649;-3322,800000;1765478443197649;6389,565000;1765478443197649;0
1196;1765478443197650;-3323,775000;1765478443197650;6389,565000;1765478443197650;0
1197;1765478443197651;-3318,120000;1765478443197651;6389,565000;1765478443197651;0
1198;1765478443197652;-3321,630000;1765478443197652;6389,565000;1765478443197652;0
1199;1765478443197653;-3318,900000;1765478443197653;6389,565000;1765478443197653;0
1200;1765478443197654;-3322,020000;1765478443197654;5314,335000;1765478443197654;0
1201;1765478443197655;-3320,070000;1765478443197655;6389,565000;1765478443197655;0
1202;1765478443197656;-3320,070000;1765478443197655;6389,565000;1765478443197656;0
1203;1765478443197662;-3323,970000;1765478443197662;6389,565000;1765478443197656;0
1204;1765478443197663;-3323,385000;1765478443197663;6389,565000;1765478443197663;0
1205;1765478443197664;-3320,850000;1765478443197664;6389,565000;1765478443197664;0
1206;1765478443197665;-3320,850000;1765478443197664;6389,565000;1765478443197665;0
1207;1765478443197668;-3320,850000;1765478443197668;6389,565000;1765478443197668;0
1208;1765478443197669;-3321,825000;1765478443197669;6389,565000;1765478443197669;0
1209;1765478443197670;-3317,925000;1765478443197670;6389,565000;1765478443197670;0
1210;1765478443197671;-3321,825000;1765478443197671;6389,565000;1765478443197671;0
1211;1765478443197672;-3323,970000;1765478443197672;6389,565000;1765478443197672;0
1212;1765478443197673;-3321,630000;1765478443197673;6389,565000;1765478443197673;0
1213;1765478443197674;-3320,655000;1765478443197674;6389,565000;1765478443197674;0
1214;1765478443197675;-3320,655000;1765478443197674;6389,565000;1765478443197675;0
1215;1765478443200638;-3931,785000;1765478443200638;6389,565000;1765478443197675;0
1216;1765478443200640;-3931,785000;1765478443200638;-4528,290000;1765478443200640;0
1217;1765478443200642;-3326,115000;1765478443200642;-4528,290000;1765478443200640;0
1218;1765478443200643;-3321,630000;1765478443200643;6389,565000;1765478443200643;0
1219;1765478443200644;-3321,435000;1765478443200644;6389,565000;1765478443200644;0
1220;1765478443200645;-3318,705000;1765478443200645;6389,565000;1765478443200645;0
1221;1765478443200646;-3323,385000;1765478443200646;6389,565000;1765478443200646;0
1222;1765478443200647;-3320,070000;1765478443200647;6389,565000;1765478443200647;0
1223;1765478443200648;-3320,070000;1765478443200647;6389,565000;1765478443200648;0
1224;1765478443200653;-3319,875000;1765478443200653;6389,565000;1765478443200648;0
1225;1765478443200654;-3319,875000;1765478443200653;-699,075000;1765478443200654;0
1226;1765478443200655;-3321,435000;1765478443200655;-699,075000;1765478443200654;0
1227;1765478443200656;-3323,190000;1765478443200656;6389,565000;1765478443200656;0
1228;1765478443200657;-3317,730000;1765478443200657;6389,565000;1765478443200657;0
1229;1765478443200658;-3321,630000;1765478443200658;6389,565000;1765478443200658;0
1230;1765478443200659;-3322,020000;1765478443200659;6389,565000;1765478443200659;0
1231;1765478443200660;-3322,020000;1765478443200660;6389,565000;1765478443200660;0
1232;1765478443200661;-3320,265000;1765478443200661;6389,565000;1765478443200661;0
1233;1765478443200662;-3320,265000;1765478443200661;6389,565000;1765478443200662;0
1234;1765478443200663;-3322,995000;1765478443200663;6389,565000;1765478443200663;0
1235;1765478443200664;-3320,850000;1765478443200664;6389,565000;1765478443200664;0
1236;1765478443200665;-3321,825000;1765478443200665;6389,565000;1765478443200665;0
1237;1765478443200666;-3322,020000;1765478443200666;6389,565000;1765478443200666;0
1238;1765478443200667;-3320,265000;1765478443200667;6389,565000;1765478443200667;0
1239;1765478443200669;-3320,265000;1765478443200667;6389,565000;1765478443200669;0
1240;1765478443200670;-3321,825000;1765478443200670;6389,565000;1765478443200670;0
1241;1765478443200671;-3323,385000;1765478443200671;6389,565000;1765478443200671;0
1242;1765478443200672;-3323,385000;1765478443200671;6389,565000;1765478443200672;0
1243;1765478443200673;-3321,825000;1765478443200673;6389,565000;1765478443200673;0
1244;1765478443200674;-3320,265000;1765478443200674;6389,565000;1765478443200674;0
1245;1765478443200675;-3320,655000;1765478443200675;6389,565000;1765478443200674;0
1246;1765478443200676;-3323,775000;1765478443200676;6389,565000;1765478443200676;0
1247;1765478443200677;-3320,655000;1765478443200677;6389,565000;1765478443200677;0
1248;1765478443200678;-3321,825000;1765478443200678;6389,565000;1765478443200678;0
1249;1765478443200679;-3322,995000;1765478443200679;6389,565000;1765478443200679;0
1250;1765478443200680;-3322,995000;1765478443200679;6389,565000;1765478443200680;0
1251;1765478443200681;-3323,775000;1765478443200681;6389,565000;1765478443200680;0
1252;1765478443200682;-3320,655000;1765478443200682;6389,565000;1765478443200682;0
1253;1765478443200690;-3321,825000;1765478443200690;6389,565000;1765478443200690;0
1254;1765478443200691;-3323,970000;1765478443200691;6389,565000;1765478443200691;0
1255;1765478443200692;-3321,825000;1765478443200692;6389,565000;1765478443200692;0
1256;1765478443200693;-3320,265000;1765478443200693;6389,565000;1765478443200693;0
1257;1765478443200694;-3323,775000;1765478443200694;6389,565000;1765478443200694;0
1258;1765478443200695;-3322,410000;1765478443200695;6389,565000;1765478443200695;0
1259;1765478443200699;-3322,410000;1765478443200695;6389,565000;1765478443200699;0
1260;1765478443258443;-3931,785000;1765478443258443;6389,565000;1765478443200699;0
1261;1765478443258449;-3931,785000;1765478443258443;6389,565000;1765478443258449;0
1262;1765478443258451;-3319,875000;1765478443258451;6389,565000;1765478443258449;0
1263;1765478443258452;-3319,875000;1765478443258451;6389,565000;1765478443258452;0
1264;1765478443258453;-3316,560000;1765478443258453;6389,565000;1765478443258452;0
1265;1765478443258454;-3316,560000;1765478443258453;6389,565000;1765478443258454;0
1266;1765478443258456;-3318,120000;1765478443258456;6389,565000;1765478443258454;0
1267;1765478443258457;-3318,120000;1765478443258456;6389,565000;1765478443258457;0
1268;1765478443258458;-3321,825000;1765478443258458;6389,565000;1765478443258458;0
1269;1765478443258459;-3323,970000;1765478443258459;6389,565000;1765478443258458;0
1270;1765478443258460;-3323,970000;1765478443258459;6389,565000;1765478443258460;0
1271;1765478443258461;-3323,970000;1765478443258461;6389,565000;1765478443258460;0
1272;1765478443258462;-3323,970000;1765478443258461;-4289,025000;1765478443258462;0
1273;1765478443258464;-3318,120000;1765478443258464;-4289,025000;1765478443258462;0
1274;1765478443258465;-3318,120000;1765478443258464;6389,565000;1765478443258465;0
1275;1765478443258466;-3322,020000;1765478443258466;6389,565000;1765478443258465;0
1276;1765478443258467;-3322,020000;1765478443258466;6389,565000;1765478443258467;0
1277;1765478443258468;-3325,140000;1765478443258468;6389,565000;1765478443258467;0
1278;1765478443258469;-3325,140000;1765478443258468;6389,565000;1765478443258469;0
1279;1765478443258470;-3323,190000;1765478443258470;6389,565000;1765478443258469;0
1280;1765478443258471;-3323,190000;1765478443258470;6389,565000;1765478443258471;0
1281;1765478443258472;-3321,630000;1765478443258472;6389,565000;1765478443258471;0
1282;1765478443258473;-3321,630000;1765478443258472;6389,565000;1765478443258473;0
1283;1765478443258474;-3321,435000;1765478443258474;6389,565000;1765478443258473;0
1284;1765478443258475;-3321,435000;1765478443258474;6389,565000;1765478443258475;0
1285;1765478443258476;-3319,680000;1765478443258476;6389,565000;1765478443258475;0
1286;1765478443258498;-3319,680000;1765478443258476;6389,565000;1765478443258498;0
1287;1765478443258499;-3317,730000;1765478443258499;6389,565000;1765478443258498;0
1288;1765478443258500;-3317,730000;1765478443258499;4794,270000;1765478443258500;0
1289;1765478443258501;-3323,970000;1765478443258501;4794,270000;1765478443258500;0
1290;1765478443258502;-3323,970000;1765478443258501;6175,845000;1765478443258502;0
1291;1765478443258503;-3322,020000;1765478443258503;6389,565000;1765478443258503;0
1292;1765478443258504;-3317,730000;1765478443258504;6389,565000;1765478443258503;0
1293;1765478443258505;-3317,730000;1765478443258504;6389,565000;1765478443258505;0
1294;1765478443258506;-3320,265000;1765478443258506;6389,565000;1765478443258505;0
1295;1765478443258507;-3320,265000;1765478443258506;6389,565000;1765478443258507;0
1296;1765478443258508;-3324,360000;1765478443258508;6389,565000;1765478443258507;0
1297;1765478443258509;-3324,360000;1765478443258508;6389,565000;1765478443258509;0
1298;1765478443258510;-3318,705000;1765478443258510;6389,565000;1765478443258509;0
1299;1765478443258511;-3318,705000;1765478443258510;6389,565000;1765478443258511;0
1300;1765478443258512;-3318,705000;1765478443258510;6389,565000;1765478443258512;0
1301;1765478443258513;-3319,680000;1765478443258513;6389,565000;1765478443258512;0
1302;1765478443258514;-3319,680000;1765478443258513;6389,565000;1765478443258514;0
1303;1765478443258515;-3323,580000;1765478443258515;6389,565000;1765478443258514;0
1304;1765478443258516;-3323,580000;1765478443258515;6389,565000;1765478443258516;0
1305;1765478443258517;-3320,265000;1765478443258517;6389,565000;1765478443258516;0
1306;1765478443258518;-3320,265000;1765478443258517;6389,565000;1765478443258518;0
1307;1765478443258519;-3321,435000;1765478443258519;6389,565000;1765478443258518;0
1308;1765478443258520;-3321,435000;1765478443258519;6389,565000;1765478443258520;0
1309;1765478443258521;-3318,120000;1765478443258521;6389,565000;1765478443258521;0
1310;1765478443258522;-3320,265000;1765478443258522;6389,565000;1765478443258521;0
1311;1765478443258523;-3320,265000;1765478443258522;6389,565000;1765478443258523;0
1312;1765478443258524;-3323,775000;1765478443258524;6389,565000;1765478443258523;0
1313;1765478443258525;-3323,775000;1765478443258524;6389,565000;1765478443258525;0
1314;1765478443258526;-3323,775000;1765478443258524;6389,565000;1765478443258526;0
1315;1765478443258528;-3319,875000;1765478443258528;6389,565000;1765478443258528;0
1316;1765478443258529;-3321,435000;1765478443258529;6389,565000;1765478443258528;0
1317;1765478443258530;-3321,435000;1765478443258529;6389,565000;1765478443258530;0
1318;1765478443258531;-3320,850000;1765478443258531;6389,565000;1765478443258530;0
1319;1765478443258532;-3320,850000;1765478443258531;6389,565000;1765478443258532;0
1320;1765478443258533;-3317,730000;1765478443258533;6389,565000;1765478443258532;0
1321;1765478443258536;-3317,730000;1765478443258533;4029,090000;1765478443258536;0
1322;1765478443258537;-3320,265000;1765478443258537;4029,090000;1765478443258536;0
1323;1765478443258538;-3320,265000;1765478443258537;6389,565000;1765478443258538;0
1324;1765478443258539;-3320,850000;1765478443258539;6389,565000;1765478443258538;0
1325;1765478443258540;-3320,850000;1765478443258539;6389,565000;1765478443258540;0
1326;1765478443258541;-3320,850000;1765478443258541;6389,565000;1765478443258540;0
1327;1765478443258545;-3320,850000;1765478443258541;6389,565000;1765478443258545;0
1328;1765478443258546;-3320,850000;1765478443258541;6389,565000;1765478443258546;0
1329;1765478443258547;-3321,825000;1765478443258547;6389,565000;1765478443258546;0
1330;1765478443258548;-3321,825000;1765478443258547;6389,565000;1765478443258548;0
1331;1765478443258549;-3320,070000;1765478443258549;6389,565000;1765478443258548;0
1332;1765478443258550;-3320,070000;1765478443258549;6389,565000;1765478443258550;0
1333;1765478443258551;-3318,510000;1765478443258551;6389,565000;1765478443258550;0
1334;1765478443258552;-3318,510000;1765478443258551;6389,565000;1765478443258552;0
1335;1765478443318605;-3931,785000;1765478443318605;6389,565000;1765478443258552;0
1336;1765478443318611;-3931,785000;1765478443318605;6389,565000;1765478443318611;0
1337;1765478443318612;-3322,020000;1765478443318612;6389,565000;1765478443318611;0
1338;1765478443318614;-3322,020000;1765478443318612;6389,565000;1765478443318614;0
1339;1765478443318615;-3320,655000;1765478443318615;6389,565000;1765478443318614;0
1340;1765478443318617;-3320,655000;1765478443318615;6389,565000;1765478443318617;0
1341;1765478443318618;-3320,655000;1765478443318618;6389,565000;1765478443318617;0
1342;1765478443318619;-3320,655000;1765478443318618;5667,870000;1765478443318619;0
1343;1765478443318620;-3320,655000;1765478443318618;6389,565000;1765478443318620;0
1344;1765478443318622;-3321,630000;1765478443318622;6389,565000;1765478443318620;0
1345;1765478443318632;-3321,630000;1765478443318622;6389,565000;1765478443318632;0
1346;1765478443318633;-3320,850000;1765478443318633;6389,565000;1765478443318632;0
1347;1765478443318634;-3320,850000;1765478443318633;6389,565000;1765478443318634;0
1348;1765478443318635;-3323,190000;1765478443318635;6389,565000;1765478443318634;0
1349;1765478443318636;-3323,190000;1765478443318635;6389,565000;1765478443318636;0
1350;1765478443318637;-3321,825000;1765478443318637;6389,565000;1765478443318636;0
1351;1765478443318638;-3321,825000;1765478443318637;6389,565000;1765478443318638;0
1352;1765478443318639;-3321,825000;1765478443318639;6389,565000;1765478443318638;0
1353;1765478443318640;-3322,020000;1765478443318640;6389,565000;1765478443318640;0
1354;1765478443318641;-3322,020000;1765478443318640;3614,910000;1765478443318641;0
1355;1765478443318642;-3322,410000;1765478443318642;3614,910000;1765478443318641;0
1356;1765478443318643;-3322,410000;1765478443318642;6389,565000;1765478443318643;0
1357;1765478443318644;-3322,410000;1765478443318642;6389,565000;1765478443318644;0
1358;1765478443318645;-3318,510000;1765478443318645;6389,565000;1765478443318644;0
1359;1765478443318646;-3318,510000;1765478443318645;6389,565000;1765478443318646;0
1360;1765478443318647;-3322,995000;1765478443318647;6389,565000;1765478443318646;0
1361;1765478443318648;-3322,995000;1765478443318647;6389,565000;1765478443318648;0
1362;1765478443318649;-3324,360000;1765478443318649;6389,565000;1765478443318648;0
1363;1765478443318650;-3320,655000;1765478443318650;6389,565000;1765478443318650;0
1364;1765478443318651;-3320,655000;1765478443318650;6389,565000;1765478443318651;0
1365;1765478443318652;-3323,190000;1765478443318652;6389,565000;1765478443318651;0
1366;1765478443318653;-3323,190000;1765478443318652;6389,565000;1765478443318653;0
1367;1765478443318654;-3321,435000;1765478443318654;6389,565000;1765478443318653;0
1368;1765478443318655;-3318,120000;1765478443318655;6389,565000;1765478443318655;0
1369;1765478443318656;-3318,120000;1765478443318655;6389,565000;1765478443318656;0
1370;1765478443318657;-3318,120000;1765478443318655;6389,565000;1765478443318657;0
1371;1765478443318658;-3321,630000;1765478443318658;6389,565000;1765478443318657;0
1372;1765478443318659;-3321,630000;1765478443318658;6389,565000;1765478443318659;0
1373;1765478443318660;-3320,070000;1765478443318660;6389,565000;1765478443318659;0
1374;1765478443318661;-3320,070000;1765478443318660;6389,565000;1765478443318661;0
1375;1765478443318662;-3320,850000;1765478443318662;6389,565000;1765478443318661;0
1376;1765478443318663;-3324,165000;1765478443318663;6389,565000;1765478443318663;0
1377;1765478443318664;-3324,165000;1765478443318663;6389,565000;1765478443318664;0
1378;1765478443318665;-3318,510000;1765478443318665;6389,565000;1765478443318664;0
1379;1765478443318666;-3318,510000;1765478443318665;6389,565000;1765478443318666;0
1380;1765478443318667;-3318,705000;1765478443318667;6389,565000;1765478443318666;0
1381;1765478443318668;-3321,630000;1765478443318668;6389,565000;1765478443318668;0
1382;1765478443318669;-3321,630000;1765478443318668;6389,565000;1765478443318669;0
1383;1765478443318670;-3321,630000;1765478443318668;6389,565000;1765478443318670;0
1384;1765478443318671;-3324,165000;1765478443318671;6389,565000;1765478443318670;0
1385;1765478443318672;-3324,165000;1765478443318671;6389,565000;1765478443318672;0
1386;1765478443318673;-3321,240000;1765478443318673;6389,565000;1765478443318672;0
1387;1765478443318674;-3321,240000;1765478443318673;6389,565000;1765478443318674;0
1388;1765478443318675;-3323,775000;1765478443318675;6389,565000;1765478443318675;0
1389;1765478443318676;-3320,070000;1765478443318676;6389,565000;1765478443318675;0
1390;1765478443318677;-3320,070000;1765478443318676;6389,565000;1765478443318677;0
1391;1765478443318678;-3320,655000;1765478443318678;6389,565000;1765478443318677;0
1392;1765478443318679;-3320,655000;1765478443318678;6389,565000;1765478443318679;0
1393;1765478443318680;-3320,850000;1765478443318680;6389,565000;1765478443318680;0
1394;1765478443318681;-3321,435000;1765478443318681;6389,565000;1765478443318680;0
1395;1765478443318682;-3321,435000;1765478443318681;6389,565000;1765478443318682;0
1396;1765478443318683;-3321,435000;1765478443318681;6389,565000;1765478443318683;0
1397;1765478443318684;-3322,995000;1765478443318684;6389,565000;1765478443318683;0
1398;1765478443318685;-3322,995000;1765478443318684;6389,565000;1765478443318685;0
1399;1765478443318686;-3318,900000;1765478443318686;6389,565000;1765478443318685;0
1400;1765478443318687;-3318,900000;1765478443318686;6389,565000;1765478443318687;0
1401;1765478443318693;-3320,850000;1765478443318693;6389,565000;1765478443318687;0
1402;1765478443318697;-3320,850000;1765478443318693;6389,565000;1765478443318697;0
1403;1765478443318698;-3322,995000;1765478443318698;6389,565000;1765478443318697;0
1404;1765478443318699;-3322,995000;1765478443318698;6389,565000;1765478443318699;0
1405;1765478443318708;-3321,825000;1765478443318708;6389,565000;1765478443318699;0
1406;1765478443318709;-3321,825000;1765478443318708;6389,565000;1765478443318709;0
1407;1765478443379201;-3931,785000;1765478443379201;6389,565000;1765478443318709;0
1408;1765478443379211;-3931,785000;1765478443379201;6389,565000;1765478443379211;0
1409;1765478443379213;-3317,925000;1765478443379213;6389,565000;1765478443379211;0
1410;1765478443379215;-3317,925000;1765478443379213;6389,565000;1765478443379215;0
1411;1765478443379216;-3321,630000;1765478443379216;6389,565000;1765478443379215;0
1412;1765478443379217;-3321,630000;1765478443379216;6389,565000;1765478443379217;0
1413;1765478443379219;-3317,145000;1765478443379219;6389,565000;1765478443379217;0
1414;1765478443379220;-3317,145000;1765478443379219;6389,565000;1765478443379220;0
1415;1765478443379221;-3321,435000;1765478443379221;6389,565000;1765478443379220;0
1416;1765478443379222;-3321,435000;1765478443379221;6389,565000;1765478443379222;0
1417;1765478443379224;-3320,265000;1765478443379224;6389,565000;1765478443379222;0
1418;1765478443379225;-3320,265000;1765478443379224;6389,565000;1765478443379225;0
1419;1765478443379226;-3321,825000;1765478443379226;6389,565000;1765478443379225;0
1420;1765478443379227;-3321,825000;1765478443379226;6389,565000;1765478443379227;0
1421;1765478443379228;-3323,970000;1765478443379228;6389,565000;1765478443379227;0
1422;1765478443379229;-3323,970000;1765478443379228;6389,565000;1765478443379229;0
1423;1765478443379231;-3323,970000;1765478443379228;6389,565000;1765478443379231;0
1424;1765478443379233;-3318,900000;1765478443379233;6389,565000;1765478443379231;0
1425;1765478443379234;-3318,900000;1765478443379233;6389,565000;1765478443379234;0
1426;1765478443379235;-3318,705000;1765478443379235;6389,565000;1765478443379234;0
1427;1765478443379236;-3318,705000;1765478443379235;6389,565000;1765478443379236;0
1428;1765478443379237;-3320,850000;1765478443379237;6389,565000;1765478443379236;0
1429;1765478443379238;-3320,850000;1765478443379237;6389,565000;1765478443379238;0
1430;1765478443379239;-3319,290000;1765478443379239;6389,565000;1765478443379238;0
1431;1765478443379240;-3319,290000;1765478443379239;6389,565000;1765478443379240;0
1432;1765478443379242;-3321,045000;1765478443379242;6389,565000;1765478443379240;0
1433;1765478443379243;-3321,045000;1765478443379242;6389,565000;1765478443379243;0
1434;1765478443379244;-3317,730000;1765478443379244;6389,565000;1765478443379243;0
1435;1765478443379245;-3317,730000;1765478443379244;6389,565000;1765478443379245;0
1436;1765478443379246;-3321,825000;1765478443379246;6389,565000;1765478443379245;0
1437;1765478443379247;-3321,825000;1765478443379246;6389,565000;1765478443379247;0
1438;1765478443379249;-3321,825000;1765478443379246;6389,565000;1765478443379249;0
1439;1765478443379250;-3320,850000;1765478443379250;6389,565000;1765478443379249;0
1440;1765478443379251;-3320,850000;1765478443379250;6389,565000;1765478443379251;0
1441;1765478443379252;-3320,655000;1765478443379252;6389,565000;1765478443379251;0
1442;1765478443379267;-3320,655000;1765478443379252;6389,565000;1765478443379267;0
1443;1765478443379268;-3316,170000;1765478443379268;6389,565000;1765478443379267;0
1444;1765478443379270;-3316,170000;1765478443379268;5401,695000;1765478443379270;0
1445;1765478443379271;-3319,485000;1765478443379271;5401,695000;1765478443379270;0
1446;1765478443379272;-3319,485000;1765478443379271;6389,565000;1765478443379272;0
1447;1765478443379273;-3319,290000;1765478443379273;6389,565000;1765478443379272;0
1448;1765478443379274;-3319,290000;1765478443379273;6389,565000;1765478443379274;0
1449;1765478443379275;-3319,290000;1765478443379275;6389,565000;1765478443379274;0
1450;1765478443379277;-3319,290000;1765478443379275;6389,565000;1765478443379277;0
1451;1765478443379278;-3320,655000;1765478443379278;6389,565000;1765478443379277;0
1452;1765478443379279;-3320,655000;1765478443379278;6389,565000;1765478443379279;0
1453;1765478443379281;-3320,655000;1765478443379278;6389,565000;1765478443379281;0
1454;1765478443379282;-3316,560000;1765478443379282;6389,565000;1765478443379281;0
1455;1765478443379283;-3316,560000;1765478443379282;6389,565000;1765478443379283;0
1456;1765478443379284;-3316,170000;1765478443379284;6389,565000;1765478443379283;0
1457;1765478443379285;-3316,170000;1765478443379284;6389,565000;1765478443379285;0
