Index;Time_us;Ch1_val_uV;Ch1_ts_us;Ch2_val_uV;Ch2_ts_us;StimState
0;1765476990334709;-649,545000;1765476990334709;;;0
1;1765476990334717;-649,545000;1765476990334709;177,840000;1765476990334717;0
2;1765476990334719;-561,210000;1765476990334719;177,840000;1765476990334717;0
3;1765476990334721;-561,210000;1765476990334719;157,560000;1765476990334721;0
4;1765476990334723;-561,210000;1765476990334719;341,055000;1765476990334723;0
5;1765476990334726;-417,105000;1765476990334726;341,055000;1765476990334723;0
6;1765476990334728;-417,105000;1765476990334726;329,550000;1765476990334728;0
7;1765476990334735;-652,665000;1765476990334735;329,550000;1765476990334728;0
8;1765476990334736;-652,665000;1765476990334735;232,440000;1765476990334736;0
9;1765476990334738;517,725000;1765476990334738;232,440000;1765476990334736;0
10;1765476990334740;517,725000;1765476990334738;619,710000;1765476990334740;0
11;1765476990334741;-582,270000;1765476990334741;619,710000;1765476990334740;0
12;1765476990334742;-582,270000;1765476990334741;167,310000;1765476990334742;0
13;1765476990334744;28,470000;1765476990334744;167,310000;1765476990334742;0
14;1765476990334745;28,470000;1765476990334744;-63,375000;1765476990334745;0
15;1765476990334746;36,855000;1765476990334746;-63,375000;1765476990334745;0
16;1765476990334748;36,855000;1765476990334746;297,375000;1765476990334748;0
17;1765476990334749;-30,225000;1765476990334749;297,375000;1765476990334748;0
18;1765476990334751;-30,225000;1765476990334749;-96,720000;1765476990334751;0
19;1765476990334752;-30,225000;1765476990334749;401,310000;1765476990334752;0
20;1765476990334754;251,550000;1765476990334754;401,310000;1765476990334752;0
21;1765476990334755;251,550000;1765476990334754;143,910000;1765476990334755;0
22;1765476990334757;-584,610000;1765476990334757;143,910000;1765476990334755;0
23;1765476990334758;-584,610000;1765476990334757;-83,070000;1765476990334758;0
24;1765476990334759;298,350000;1765476990334759;-83,070000;1765476990334758;0
25;1765476990334761;298,350000;1765476990334759;112,515000;1765476990334761;0
26;1765476990334762;-431,730000;1765476990334762;112,515000;1765476990334761;0
27;1765476990334763;-431,730000;1765476990334762;-8,580000;1765476990334763;0
28;1765476990334764;-142,740000;1765476990334764;-8,580000;1765476990334763;0
29;1765476990334765;-142,740000;1765476990334764;-532,155000;1765476990334765;0
30;1765476990334767;-895,050000;1765476990334767;-532,155000;1765476990334765;0
31;1765476990334768;-895,050000;1765476990334767;-846,690000;1765476990334768;0
32;1765476990334769;880,815000;1765476990334769;-846,690000;1765476990334768;0
33;1765476990334771;880,815000;1765476990334769;282,750000;1765476990334771;0
34;1765476990334772;880,815000;1765476990334769;784,485000;1765476990334772;0
35;1765476990334774;1835,340000;1765476990334774;784,485000;1765476990334772;0
36;1765476990334775;1835,340000;1765476990334774;738,465000;1765476990334775;0
37;1765476990334777;1056,900000;1765476990334777;738,465000;1765476990334775;0
38;1765476990334778;1056,900000;1765476990334777;238,095000;1765476990334778;0
39;1765476990334779;1451,775000;1765476990334779;238,095000;1765476990334778;0
40;1765476990334780;1451,775000;1765476990334779;497,055000;1765476990334780;0
41;1765476990334781;1616,940000;1765476990334781;497,055000;1765476990334780;0
42;1765476990334782;1616,940000;1765476990334781;453,180000;1765476990334782;0
43;1765476990334784;409,110000;1765476990334784;453,180000;1765476990334782;0
44;1765476990334785;409,110000;1765476990334784;-17,940000;1765476990334785;0
45;1765476990334786;1087,710000;1765476990334786;-17,940000;1765476990334785;0
46;1765476990334787;1087,710000;1765476990334786;94,965000;1765476990334787;0
47;1765476990334789;628,095000;1765476990334789;94,965000;1765476990334787;0
48;1765476990334790;628,095000;1765476990334789;0,975000;1765476990334790;0
49;1765476990334793;2136,030000;1765476990334793;0,975000;1765476990334790;0
50;1765476990334794;2136,030000;1765476990334793;812,175000;1765476990334794;0
51;1765476990334796;1874,535000;1765476990334796;812,175000;1765476990334794;0
52;1765476990334797;1874,535000;1765476990334796;267,150000;1765476990334797;0
53;1765476990334798;1521,390000;1765476990334798;267,150000;1765476990334797;0
54;1765476990334799;1521,390000;1765476990334798;-231,855000;1765476990334799;0
55;1765476990334801;1480,830000;1765476990334801;-231,855000;1765476990334799;0
56;1765476990334802;1480,830000;1765476990334801;-190,515000;1765476990334802;0
57;1765476990334803;2053,935000;1765476990334803;-190,515000;1765476990334802;0
58;1765476990334804;2053,935000;1765476990334803;622,830000;1765476990334804;0
59;1765476990334805;1822,860000;1765476990334805;622,830000;1765476990334804;0
60;1765476990334806;1822,860000;1765476990334805;16,575000;1765476990334806;0
61;1765476990334808;3136,575000;1765476990334808;16,575000;1765476990334806;0
62;1765476990334809;3136,575000;1765476990334808;571,935000;1765476990334809;0
63;1765476990334812;2222,415000;1765476990334812;571,935000;1765476990334809;0
64;1765476990334813;2222,415000;1765476990334812;240,630000;1765476990334813;0
65;1765476990334814;2624,700000;1765476990334814;240,630000;1765476990334813;0
66;1765476990334816;2624,700000;1765476990334814;609,375000;1765476990334816;0
67;1765476990334817;2865,915000;1765476990334817;609,375000;1765476990334816;0
68;1765476990334818;2865,915000;1765476990334817;476,190000;1765476990334818;0
69;1765476990334819;3714,945000;1765476990334819;476,190000;1765476990334818;0
70;1765476990334820;3714,945000;1765476990334819;746,655000;1765476990334820;0
71;1765476990334822;3286,530000;1765476990334822;746,655000;1765476990334820;0
72;1765476990334823;3286,530000;1765476990334822;478,530000;1765476990334823;0
73;1765476990334824;-34,125000;1765476990334824;478,530000;1765476990334823;0
74;1765476990334825;-34,125000;1765476990334824;740,610000;1765476990334825;0
75;1765476990334826;-822,120000;1765476990334826;740,610000;1765476990334825;0
76;1765476990334828;-822,120000;1765476990334826;216,645000;1765476990334828;0
77;1765476990393976;-3918,915000;1765476990393976;216,645000;1765476990334828;0
78;1765476990393981;-3918,915000;1765476990393976;-260,130000;1765476990393981;0
79;1765476990393983;-3918,915000;1765476990393976;747,435000;1765476990393983;0
80;1765476990393985;1558,050000;1765476990393985;747,435000;1765476990393983;0
81;1765476990393986;1558,050000;1765476990393985;538,005000;1765476990393986;0
82;1765476990393987;576,030000;1765476990393987;538,005000;1765476990393986;0
83;1765476990393988;576,030000;1765476990393987;413,985000;1765476990393988;0
84;1765476990393989;95,745000;1765476990393989;413,985000;1765476990393988;0
85;1765476990393990;95,745000;1765476990393989;56,550000;1765476990393990;0
86;1765476990393991;274,560000;1765476990393991;56,550000;1765476990393990;0
87;1765476990393992;274,560000;1765476990393991;-175,890000;1765476990393992;0
88;1765476990393993;1511,640000;1765476990393993;-175,890000;1765476990393992;0
89;1765476990393994;1511,640000;1765476990393993;142,155000;1765476990393994;0
90;1765476990393995;1601,535000;1765476990393995;322,335000;1765476990393995;0
91;1765476990393996;1602,510000;1765476990393996;322,335000;1765476990393995;0
92;1765476990393997;1602,510000;1765476990393996;232,830000;1765476990393997;0
93;1765476990393998;2064,465000;1765476990393998;232,830000;1765476990393997;0
94;1765476990393999;2064,465000;1765476990393998;501,345000;1765476990393999;0
95;1765476990394000;1565,265000;1765476990394000;501,345000;1765476990393999;0
96;1765476990394001;1565,265000;1765476990394000;225,420000;1765476990394001;0
97;1765476990394002;1713,075000;1765476990394002;225,420000;1765476990394001;0
98;1765476990394003;1713,075000;1765476990394002;570,375000;1765476990394003;0
99;1765476990394004;2609,880000;1765476990394004;570,375000;1765476990394003;0
100;1765476990394005;2609,880000;1765476990394004;636,285000;1765476990394005;0
101;1765476990394007;1341,405000;1765476990394007;636,285000;1765476990394005;0
102;1765476990394008;1341,405000;1765476990394007;22,815000;1765476990394008;0
103;1765476990394009;1631,175000;1765476990394009;22,815000;1765476990394008;0
104;1765476990394010;1631,175000;1765476990394009;67,080000;1765476990394010;0
105;1765476990394011;2298,660000;1765476990394011;366,600000;1765476990394011;0
106;1765476990394012;1935,375000;1765476990394012;366,600000;1765476990394011;0
107;1765476990394014;2086,110000;1765476990394014;291,525000;1765476990394014;0
108;1765476990394015;2086,110000;1765476990394014;-139,035000;1765476990394015;0
109;1765476990394016;1834,365000;1765476990394016;-139,035000;1765476990394015;0
110;1765476990394017;1834,365000;1765476990394016;-211,185000;1765476990394017;0
111;1765476990394018;3290,430000;1765476990394018;-211,185000;1765476990394017;0
112;1765476990394019;3290,430000;1765476990394018;414,960000;1765476990394019;0
113;1765476990394020;2280,330000;1765476990394020;141,375000;1765476990394020;0
114;1765476990394021;2940,990000;1765476990394021;141,375000;1765476990394020;0
115;1765476990394022;2940,990000;1765476990394021;395,070000;1765476990394022;0
116;1765476990394023;3159,195000;1765476990394023;395,070000;1765476990394022;0
117;1765476990394024;3159,195000;1765476990394023;399,360000;1765476990394024;0
118;1765476990394025;2365,740000;1765476990394025;399,360000;1765476990394024;0
119;1765476990394026;2880,735000;1765476990394026;-16,770000;1765476990394026;0
120;1765476990394027;2880,735000;1765476990394026;157,560000;1765476990394027;0
121;1765476990394029;3271,320000;1765476990394029;157,560000;1765476990394027;0
122;1765476990394030;3271,320000;1765476990394029;372,645000;1765476990394030;0
123;1765476990394031;2738,775000;1765476990394031;372,645000;1765476990394030;0
124;1765476990394032;2738,775000;1765476990394031;333,255000;1765476990394032;0
125;1765476990394033;-473,460000;1765476990394033;-205,140000;1765476990394033;0
126;1765476990394034;-1693,185000;1765476990394034;-205,140000;1765476990394033;0
127;1765476990394035;-1693,185000;1765476990394034;-803,010000;1765476990394035;0
128;1765476990394036;-1147,185000;1765476990394036;-803,010000;1765476990394035;0
129;1765476990394037;-1147,185000;1765476990394036;-960,180000;1765476990394037;0
130;1765476990394038;-1147,185000;1765476990394036;-201,825000;1765476990394038;0
131;1765476990394039;-44,850000;1765476990394039;-201,825000;1765476990394038;0
132;1765476990394040;-44,850000;1765476990394039;3,705000;1765476990394040;0
133;1765476990394041;63,180000;1765476990394041;3,705000;1765476990394040;0
134;1765476990394042;63,180000;1765476990394041;257,595000;1765476990394042;0
135;1765476990394043;495,495000;1765476990394043;257,595000;1765476990394042;0
136;1765476990394044;1083,420000;1765476990394044;664,950000;1765476990394044;0
137;1765476990394045;1083,420000;1765476990394044;827,775000;1765476990394045;0
138;1765476990394046;663,390000;1765476990394046;827,775000;1765476990394045;0
139;1765476990394047;663,390000;1765476990394046;440,700000;1765476990394047;0
140;1765476990394048;469,950000;1765476990394048;103,155000;1765476990394048;0
141;1765476990394051;-697,125000;1765476990394051;103,155000;1765476990394048;0
142;1765476990394052;-697,125000;1765476990394051;-317,265000;1765476990394052;0
143;1765476990394053;-576,030000;1765476990394053;-252,915000;1765476990394053;0
144;1765476990394054;-445,185000;1765476990394054;-252,915000;1765476990394053;0
145;1765476990394055;-445,185000;1765476990394054;73,710000;1765476990394055;0
146;1765476990394056;152,100000;1765476990394056;73,710000;1765476990394055;0
147;1765476990394057;182,520000;1765476990394057;63,375000;1765476990394057;0
148;1765476990394059;182,520000;1765476990394057;453,375000;1765476990394059;0
149;1765476990453257;-3916,770000;1765476990453257;453,375000;1765476990394059;0
150;1765476990453259;-3916,770000;1765476990453257;116,610000;1765476990453259;0
151;1765476990453260;544,440000;1765476990453260;71,370000;1765476990453260;0
152;1765476990453261;1323,075000;1765476990453261;626,145000;1765476990453261;0
153;1765476990453262;-430,755000;1765476990453262;878,475000;1765476990453262;0
154;1765476990453263;565,890000;1765476990453263;238,875000;1765476990453263;0
155;1765476990453264;1060,215000;1765476990453264;744,120000;1765476990453264;0
156;1765476990453265;426,270000;1765476990453265;355,290000;1765476990453265;0
157;1765476990453266;827,970000;1765476990453266;438,750000;1765476990453266;0
158;1765476990453267;967,005000;1765476990453267;759,525000;1765476990453267;0
159;1765476990453268;153,660000;1765476990453268;759,525000;1765476990453267;0
160;1765476990453269;639,600000;1765476990453269;390,390000;1765476990453269;0
161;1765476990453270;525,135000;1765476990453270;390,390000;1765476990453269;0
162;1765476990453271;-1193,595000;1765476990453271;-21,060000;1765476990453271;0
163;1765476990453272;-247,650000;1765476990453272;463,710000;1765476990453272;0
164;1765476990453273;-33,735000;1765476990453273;303,615000;1765476990453273;0
165;1765476990453274;-339,105000;1765476990453274;560,625000;1765476990453274;0
166;1765476990453275;-1172,145000;1765476990453275;73,905000;1765476990453275;0
167;1765476990453276;-1302,600000;1765476990453276;463,710000;1765476990453276;0
168;1765476990453277;-1008,150000;1765476990453277;-81,315000;1765476990453277;0
169;1765476990453278;-1000,545000;1765476990453278;527,280000;1765476990453278;0
170;1765476990453279;-2175,030000;1765476990453279;-107,055000;1765476990453279;0
171;1765476990453282;-1456,065000;1765476990453282;222,885000;1765476990453282;0
172;1765476990453283;-833,040000;1765476990453283;278,070000;1765476990453283;0
173;1765476990453284;-1924,065000;1765476990453284;-128,895000;1765476990453284;0
174;1765476990453285;-2489,760000;1765476990453285;-216,450000;1765476990453285;0
175;1765476990453286;-1112,865000;1765476990453286;229,905000;1765476990453286;0
176;1765476990453287;-969,930000;1765476990453287;-122,850000;1765476990453287;0
177;1765476990453288;-442,845000;1765476990453288;630,240000;1765476990453288;0
178;1765476990453289;-2367,690000;1765476990453289;-461,370000;1765476990453289;0
179;1765476990453290;-1879,410000;1765476990453290;-551,265000;1765476990453290;0
180;1765476990456347;-3924,765000;1765476990456347;-551,265000;1765476990453290;0
181;1765476990456349;-3924,765000;1765476990456347;112,710000;1765476990456349;0
182;1765476990456350;-1336,335000;1765476990456350;413,790000;1765476990456350;0
183;1765476990456351;-1336,335000;1765476990456350;-64,350000;1765476990456351;0
184;1765476990456352;-2048,865000;1765476990456352;-262,665000;1765476990456352;0
185;1765476990456353;-1653,600000;1765476990456353;387,270000;1765476990456353;0
186;1765476990456354;-1389,960000;1765476990456354;-87,165000;1765476990456354;0
187;1765476990456355;-1262,625000;1765476990456355;-87,165000;1765476990456354;0
188;1765476990456356;-1039,935000;1765476990456356;90,675000;1765476990456356;0
189;1765476990456357;-927,810000;1765476990456357;301,080000;1765476990456357;0
190;1765476990456358;-733,200000;1765476990456358;608,010000;1765476990456358;0
191;1765476990456359;-733,200000;1765476990456358;28,470000;1765476990456359;0
192;1765476990456360;-1817,790000;1765476990456360;-152,685000;1765476990456360;0
193;1765476990456361;-1377,480000;1765476990456361;-152,685000;1765476990456360;0
194;1765476990456362;-1770,600000;1765476990456362;269,100000;1765476990456362;0
195;1765476990456363;-1564,290000;1765476990456363;-79,170000;1765476990456363;0
196;1765476990456364;-1770,210000;1765476990456364;422,370000;1765476990456364;0
197;1765476990456365;-703,365000;1765476990456365;-40,560000;1765476990456365;0
198;1765476990456366;-703,365000;1765476990456365;498,225000;1765476990456366;0
199;1765476990456367;-869,505000;1765476990456367;370,890000;1765476990456367;0
200;1765476990456368;-925,470000;1765476990456368;51,480000;1765476990456368;0
201;1765476990456369;-1112,475000;1765476990456369;-128,700000;1765476990456369;0
202;1765476990456370;-250,185000;1765476990456370;57,135000;1765476990456370;0
203;1765476990456371;-1056,705000;1765476990456371;401,310000;1765476990456371;0
204;1765476990456372;-458,640000;1765476990456372;567,255000;1765476990456372;0
205;1765476990456374;-670,020000;1765476990456374;-352,950000;1765476990456374;0
206;1765476990456375;-849,420000;1765476990456375;60,255000;1765476990456375;0
207;1765476990456376;-927,810000;1765476990456376;-83,265000;1765476990456376;0
208;1765476990456377;-1493,505000;1765476990456377;757,185000;1765476990456377;0
209;1765476990456378;-831,870000;1765476990456378;-84,240000;1765476990456378;0
210;1765476990456379;-496,665000;1765476990456379;189,735000;1765476990456379;0
211;1765476990456380;-1149,135000;1765476990456380;91,455000;1765476990456380;0
212;1765476990456381;200,460000;1765476990456381;505,635000;1765476990456381;0
213;1765476990456382;-362,115000;1765476990456382;-317,265000;1765476990456382;0
214;1765476990456383;-163,995000;1765476990456383;507,390000;1765476990456383;0
215;1765476990456384;-819,195000;1765476990456384;578,955000;1765476990456384;0
216;1765476990456385;-382,590000;1765476990456385;182,910000;1765476990456385;0
217;1765476990513998;-3922,035000;1765476990513998;182,910000;1765476990456385;0
218;1765476990514002;-3922,035000;1765476990513998;-170,625000;1765476990514002;0
219;1765476990514003;-132,795000;1765476990514003;-170,625000;1765476990514002;0
220;1765476990514004;-422,565000;1765476990514004;376,350000;1765476990514004;0
221;1765476990514006;-597,480000;1765476990514006;-14,235000;1765476990514006;0
222;1765476990514007;-597,480000;1765476990514006;-472,290000;1765476990514007;0
223;1765476990514008;-379,665000;1765476990514008;-472,290000;1765476990514007;0
224;1765476990514009;-379,665000;1765476990514008;-707,265000;1765476990514009;0
225;1765476990514010;139,035000;1765476990514010;97,890000;1765476990514010;0
226;1765476990514011;276,510000;1765476990514011;97,890000;1765476990514010;0
227;1765476990514012;-1588,275000;1765476990514012;-175,695000;1765476990514012;0
228;1765476990514013;-1588,275000;1765476990514012;-1116,570000;1765476990514013;0
229;1765476990514014;-106,860000;1765476990514014;43,680000;1765476990514014;0
230;1765476990514017;524,940000;1765476990514017;43,680000;1765476990514014;0
231;1765476990514018;1575,015000;1765476990514018;463,515000;1765476990514018;0
232;1765476990514019;1575,015000;1765476990514018;787,800000;1765476990514019;0
233;1765476990514020;71,175000;1765476990514020;-4,680000;1765476990514020;0
234;1765476990514021;1029,990000;1765476990514021;-4,680000;1765476990514020;0
235;1765476990514022;902,070000;1765476990514022;267,735000;1765476990514022;0
236;1765476990514023;902,070000;1765476990514022;431,730000;1765476990514023;0
237;1765476990514024;800,475000;1765476990514024;250,575000;1765476990514024;0
238;1765476990514025;1027,845000;1765476990514025;250,575000;1765476990514024;0
239;1765476990514026;1859,910000;1765476990514026;292,305000;1765476990514026;0
240;1765476990514027;1859,910000;1765476990514026;509,535000;1765476990514027;0
241;1765476990514028;2054,910000;1765476990514028;509,535000;1765476990514027;0
242;1765476990514029;154,635000;1765476990514029;698,685000;1765476990514029;0
243;1765476990514030;154,635000;1765476990514029;-144,105000;1765476990514030;0
244;1765476990514031;2110,875000;1765476990514031;569,985000;1765476990514031;0
245;1765476990514032;1555,710000;1765476990514032;278,655000;1765476990514032;0
246;1765476990514033;1583,790000;1765476990514033;278,655000;1765476990514032;0
247;1765476990514034;1583,790000;1765476990514033;608,205000;1765476990514034;0
248;1765476990514035;1583,790000;1765476990514033;532,350000;1765476990514035;0
249;1765476990514036;1876,095000;1765476990514036;418,080000;1765476990514036;0
250;1765476990514037;2428,530000;1765476990514037;418,080000;1765476990514036;0
251;1765476990514038;1568,190000;1765476990514038;640,770000;1765476990514038;0
252;1765476990514039;1568,190000;1765476990514038;194,610000;1765476990514039;0
253;1765476990514040;2117,310000;1765476990514040;194,610000;1765476990514039;0
254;1765476990514041;2042,625000;1765476990514041;565,110000;1765476990514041;0
255;1765476990514042;2042,625000;1765476990514041;98,475000;1765476990514042;0
256;1765476990514043;2167,230000;1765476990514043;263,250000;1765476990514043;0
257;1765476990514044;1841,190000;1765476990514044;263,250000;1765476990514043;0
258;1765476990514045;1841,190000;1765476990514044;-139,230000;1765476990514045;0
259;1765476990514046;1841,190000;1765476990514044;307,710000;1765476990514046;0
260;1765476990514047;2202,135000;1765476990514047;401,115000;1765476990514047;0
261;1765476990514048;1367,535000;1765476990514048;401,115000;1765476990514047;0
262;1765476990514049;3038,685000;1765476990514049;-140,790000;1765476990514049;0
263;1765476990514050;3038,685000;1765476990514049;560,430000;1765476990514050;0
264;1765476990514051;2777,580000;1765476990514051;560,430000;1765476990514050;0
265;1765476990514052;2883,660000;1765476990514052;247,260000;1765476990514052;0
266;1765476990514053;2883,660000;1765476990514052;340,470000;1765476990514053;0
267;1765476990514054;1704,495000;1765476990514054;-369,330000;1765476990514054;0
268;1765476990514056;2781,090000;1765476990514056;-369,330000;1765476990514054;0
269;1765476990514057;2781,090000;1765476990514056;214,110000;1765476990514057;0
270;1765476990514058;2781,090000;1765476990514056;7,215000;1765476990514058;0
271;1765476990514059;2630,940000;1765476990514059;7,215000;1765476990514058;0
272;1765476990514060;3220,230000;1765476990514060;470,925000;1765476990514060;0
273;1765476990514061;3220,230000;1765476990514060;66,885000;1765476990514061;0
274;1765476990514062;3363,945000;1765476990514062;535,275000;1765476990514062;0
275;1765476990573935;-3903,900000;1765476990573935;535,275000;1765476990514062;0
276;1765476990573939;-3903,900000;1765476990573935;114,270000;1765476990573939;0
277;1765476990573941;4179,825000;1765476990573941;351,390000;1765476990573941;0
278;1765476990573943;5368,935000;1765476990573943;583,245000;1765476990573943;0
279;1765476990573946;4703,010000;1765476990573946;583,245000;1765476990573943;0
280;1765476990573947;4703,010000;1765476990573946;752,895000;1765476990573947;0
281;1765476990573948;3583,710000;1765476990573948;752,895000;1765476990573947;0
282;1765476990573949;3583,710000;1765476990573948;276,120000;1765476990573949;0
283;1765476990573950;4683,900000;1765476990573950;276,120000;1765476990573949;0
284;1765476990573952;4683,900000;1765476990573950;578,175000;1765476990573952;0
285;1765476990573953;3317,340000;1765476990573953;578,175000;1765476990573952;0
286;1765476990573954;3317,340000;1765476990573953;-226,005000;1765476990573954;0
287;1765476990573955;4745,520000;1765476990573955;-226,005000;1765476990573954;0
288;1765476990573956;4745,520000;1765476990573955;-23,010000;1765476990573956;0
289;1765476990573957;5312,190000;1765476990573957;-23,010000;1765476990573956;0
290;1765476990573958;5312,190000;1765476990573957;478,335000;1765476990573958;0
291;1765476990573959;4779,255000;1765476990573959;235,365000;1765476990573959;0
292;1765476990573961;4762,875000;1765476990573961;235,365000;1765476990573959;0
293;1765476990573962;4762,875000;1765476990573961;432,315000;1765476990573962;0
294;1765476990573963;4570,995000;1765476990573963;432,315000;1765476990573962;0
295;1765476990573964;4570,995000;1765476990573963;300,495000;1765476990573964;0
296;1765476990573965;5185,050000;1765476990573965;300,495000;1765476990573964;0
297;1765476990573966;4719,390000;1765476990573966;626,340000;1765476990573966;0
298;1765476990573967;4719,390000;1765476990573966;204,555000;1765476990573967;0
299;1765476990573968;4481,295000;1765476990573968;204,555000;1765476990573967;0
300;1765476990573969;4481,295000;1765476990573968;30,225000;1765476990573969;0
301;1765476990573970;4969,965000;1765476990573970;367,185000;1765476990573970;0
302;1765476990573971;4815,720000;1765476990573971;367,185000;1765476990573970;0
303;1765476990573972;4815,720000;1765476990573971;151,710000;1765476990573972;0
304;1765476990573973;4003,545000;1765476990573973;151,710000;1765476990573972;0
305;1765476990573974;4610,385000;1765476990573974;-678,405000;1765476990573974;0
306;1765476990573975;4610,385000;1765476990573974;-719,745000;1765476990573975;0
307;1765476990573976;5103,150000;1765476990573976;-719,745000;1765476990573975;0
308;1765476990573977;5103,150000;1765476990573976;-47,970000;1765476990573977;0
309;1765476990573978;5448,690000;1765476990573978;312,390000;1765476990573978;0
310;1765476990573979;6198,465000;1765476990573979;312,390000;1765476990573978;0
311;1765476990573980;6198,465000;1765476990573979;415,350000;1765476990573980;0
312;1765476990573981;5854,095000;1765476990573981;606,060000;1765476990573981;0
313;1765476990573982;5908,695000;1765476990573982;606,060000;1765476990573981;0
314;1765476990573983;6389,565000;1765476990573983;279,630000;1765476990573983;0
315;1765476990573984;6389,565000;1765476990573983;834,405000;1765476990573984;0
316;1765476990573985;5486,910000;1765476990573985;834,405000;1765476990573984;0
317;1765476990573986;5396,235000;1765476990573986;198,510000;1765476990573986;0
318;1765476990573987;5396,235000;1765476990573986;27,105000;1765476990573987;0
319;1765476990573990;5213,325000;1765476990573990;27,105000;1765476990573987;0
320;1765476990573991;4905,420000;1765476990573991;309,855000;1765476990573991;0
321;1765476990573992;4905,420000;1765476990573991;106,275000;1765476990573992;0
322;1765476990573993;5549,115000;1765476990573993;191,100000;1765476990573993;0
323;1765476990573994;5543,655000;1765476990573994;191,100000;1765476990573993;0
324;1765476990573995;5543,655000;1765476990573994;242,385000;1765476990573995;0
325;1765476990573996;4905,030000;1765476990573996;166,140000;1765476990573996;0
326;1765476990573997;4667,325000;1765476990573997;166,140000;1765476990573996;0
327;1765476990573998;5098,860000;1765476990573998;-32,175000;1765476990573998;0
328;1765476990573999;5098,860000;1765476990573998;65,520000;1765476990573999;0
329;1765476990574000;4838,730000;1765476990574000;204,750000;1765476990574000;0
330;1765476990574001;6113,055000;1765476990574001;204,750000;1765476990574000;0
331;1765476990574002;6113,055000;1765476990574001;692,250000;1765476990574002;0
332;1765476990574003;6294,990000;1765476990574003;867,555000;1765476990574003;0
333;1765476990574004;4586,400000;1765476990574004;867,555000;1765476990574003;0
334;1765476990574005;4586,400000;1765476990574004;117,585000;1765476990574005;0
335;1765476990574006;5666,310000;1765476990574006;117,585000;1765476990574005;0
336;1765476990574007;4683,510000;1765476990574007;399,360000;1765476990574007;0
337;1765476990574008;4683,510000;1765476990574007;42,510000;1765476990574008;0
338;1765476990634874;-3902,145000;1765476990634874;42,510000;1765476990574008;0
339;1765476990634882;-3902,145000;1765476990634874;-86,580000;1765476990634882;0
340;1765476990634884;4282,590000;1765476990634884;-86,580000;1765476990634882;0
341;1765476990634886;4282,590000;1765476990634884;-19,890000;1765476990634886;0
342;1765476990634888;5436,990000;1765476990634888;-19,890000;1765476990634886;0
343;1765476990634890;5436,990000;1765476990634888;334,620000;1765476990634890;0
344;1765476990634891;3738,735000;1765476990634891;334,620000;1765476990634890;0
345;1765476990634893;3738,735000;1765476990634891;-108,420000;1765476990634893;0
346;1765476990634895;4606,095000;1765476990634895;-108,420000;1765476990634893;0
347;1765476990634896;4606,095000;1765476990634895;182,910000;1765476990634896;0
348;1765476990634898;5467,410000;1765476990634898;182,910000;1765476990634896;0
349;1765476990634899;5467,410000;1765476990634898;594,945000;1765476990634899;0
350;1765476990634900;4198,545000;1765476990634900;594,945000;1765476990634899;0
351;1765476990634902;4198,545000;1765476990634900;126,360000;1765476990634902;0
352;1765476990634903;4521,855000;1765476990634903;126,360000;1765476990634902;0
353;1765476990634905;4521,855000;1765476990634903;322,335000;1765476990634905;0
354;1765476990634906;4122,495000;1765476990634906;322,335000;1765476990634905;0
355;1765476990634907;4122,495000;1765476990634906;267,150000;1765476990634907;0
356;1765476990634909;4154,865000;1765476990634909;267,150000;1765476990634907;0
357;1765476990634910;4154,865000;1765476990634909;531,960000;1765476990634910;0
358;1765476990634912;3490,695000;1765476990634912;531,960000;1765476990634910;0
359;1765476990634913;3490,695000;1765476990634912;449,670000;1765476990634913;0
360;1765476990634916;3036,930000;1765476990634916;449,670000;1765476990634913;0
361;1765476990634917;3036,930000;1765476990634916;122,655000;1765476990634917;0
362;1765476990634919;3174,210000;1765476990634919;122,655000;1765476990634917;0
363;1765476990634921;3174,210000;1765476990634919;-21,450000;1765476990634921;0
364;1765476990634923;3174,210000;1765476990634919;351,390000;1765476990634923;0
365;1765476990634925;3140,475000;1765476990634925;351,390000;1765476990634923;0
366;1765476990634926;3140,475000;1765476990634925;338,910000;1765476990634926;0
367;1765476990634928;2906,085000;1765476990634928;338,910000;1765476990634926;0
368;1765476990634929;2906,085000;1765476990634928;116,415000;1765476990634929;0
369;1765476990634930;3359,655000;1765476990634930;116,415000;1765476990634929;0
370;1765476990634932;3359,655000;1765476990634930;615,615000;1765476990634932;0
371;1765476990634933;2107,170000;1765476990634933;615,615000;1765476990634932;0
372;1765476990634934;2107,170000;1765476990634933;-83,850000;1765476990634934;0
373;1765476990634936;1847,235000;1765476990634936;-83,850000;1765476990634934;0
374;1765476990634937;1847,235000;1765476990634936;-94,185000;1765476990634937;0
375;1765476990634938;2866,110000;1765476990634938;-94,185000;1765476990634937;0
376;1765476990634940;2866,110000;1765476990634938;333,645000;1765476990634940;0
377;1765476990634941;2179,905000;1765476990634941;333,645000;1765476990634940;0
378;1765476990634942;2179,905000;1765476990634941;408,525000;1765476990634942;0
379;1765476990634944;2179,905000;1765476990634941;-347,685000;1765476990634944;0
380;1765476990634946;1437,150000;1765476990634946;-347,685000;1765476990634944;0
381;1765476990634947;1437,150000;1765476990634946;-366,600000;1765476990634947;0
382;1765476990634952;2344,095000;1765476990634952;-366,600000;1765476990634947;0
383;1765476990634954;2344,095000;1765476990634952;72,540000;1765476990634954;0
384;1765476990634955;2957,955000;1765476990634955;72,540000;1765476990634954;0
385;1765476990634957;2957,955000;1765476990634955;724,230000;1765476990634957;0
386;1765476990634958;2054,715000;1765476990634958;724,230000;1765476990634957;0
387;1765476990634959;2054,715000;1765476990634958;57,525000;1765476990634959;0
388;1765476990634961;2229,435000;1765476990634961;57,525000;1765476990634959;0
389;1765476990634962;2229,435000;1765476990634961;423,735000;1765476990634962;0
390;1765476990634963;2404,740000;1765476990634963;423,735000;1765476990634962;0
391;1765476990634965;2404,740000;1765476990634963;856,830000;1765476990634965;0
392;1765476990634966;2504,775000;1765476990634966;856,830000;1765476990634965;0
393;1765476990634967;2504,775000;1765476990634966;749,775000;1765476990634967;0
394;1765476990634970;1163,955000;1765476990634970;749,775000;1765476990634967;0
395;1765476990634971;1163,955000;1765476990634970;81,900000;1765476990634971;0
396;1765476990634973;884,130000;1765476990634973;81,900000;1765476990634971;0
397;1765476990634974;884,130000;1765476990634973;-753,090000;1765476990634974;0
398;1765476990634975;417,495000;1765476990634975;-753,090000;1765476990634974;0
399;1765476990634977;417,495000;1765476990634975;-591,045000;1765476990634977;0
400;1765476990634978;1237,470000;1765476990634978;-591,045000;1765476990634977;0
401;1765476990634979;1237,470000;1765476990634978;254,670000;1765476990634979;0
402;1765476990634980;841,815000;1765476990634980;254,670000;1765476990634979;0
403;1765476990634982;841,815000;1765476990634980;-182,130000;1765476990634982;0
404;1765476990634983;585,390000;1765476990634983;-182,130000;1765476990634982;0
405;1765476990634984;585,390000;1765476990634983;-191,490000;1765476990634984;0
406;1765476990634985;1264,965000;1765476990634985;-191,490000;1765476990634984;0
407;1765476990634990;1264,965000;1765476990634985;414,960000;1765476990634990;0
408;1765476990634993;685,620000;1765476990634993;414,960000;1765476990634990;0
409;1765476990634994;685,620000;1765476990634993;421,005000;1765476990634994;0
410;1765476990634996;885,690000;1765476990634996;421,005000;1765476990634994;0
411;1765476990634997;885,690000;1765476990634996;552,630000;1765476990634997;0
412;1765476990634998;515,775000;1765476990634998;552,630000;1765476990634997;0
413;1765476990635000;515,775000;1765476990634998;85,410000;1765476990635000;0
414;1765476990635001;65,910000;1765476990635001;85,410000;1765476990635000;0
415;1765476990635002;65,910000;1765476990635001;151,710000;1765476990635002;0
416;1765476990693724;-3922,620000;1765476990693724;151,710000;1765476990635002;0
417;1765476990693729;-3922,620000;1765476990693724;377,910000;1765476990693729;0
418;1765476990693731;-1396,785000;1765476990693731;377,910000;1765476990693729;0
419;1765476990693732;-1396,785000;1765476990693731;172,575000;1765476990693732;0
420;1765476990693734;-1396,785000;1765476990693731;409,695000;1765476990693734;0
421;1765476990693735;-903,045000;1765476990693735;409,695000;1765476990693734;0
422;1765476990693736;-903,045000;1765476990693735;354,120000;1765476990693736;0
423;1765476990693737;-1441,440000;1765476990693737;354,120000;1765476990693736;0
424;1765476990693738;-1441,440000;1765476990693737;201,240000;1765476990693738;0
425;1765476990693739;-894,465000;1765476990693739;201,240000;1765476990693738;0
426;1765476990693740;-894,465000;1765476990693739;304,590000;1765476990693740;0
427;1765476990693741;-557,310000;1765476990693741;304,590000;1765476990693740;0
428;1765476990693742;-896,805000;1765476990693742;478,140000;1765476990693742;0
429;1765476990693743;-896,805000;1765476990693742;620,100000;1765476990693743;0
430;1765476990693744;-1681,290000;1765476990693744;620,100000;1765476990693743;0
431;1765476990693745;-1681,290000;1765476990693744;330,720000;1765476990693745;0
432;1765476990693746;-1440,270000;1765476990693746;330,720000;1765476990693745;0
433;1765476990693747;-1440,270000;1765476990693746;530,790000;1765476990693747;0
434;1765476990693748;-1440,270000;1765476990693746;-80,145000;1765476990693748;0
435;1765476990693749;-2532,660000;1765476990693749;-80,145000;1765476990693748;0
436;1765476990693750;-2532,660000;1765476990693749;-345,540000;1765476990693750;0
437;1765476990693751;-1867,905000;1765476990693751;-345,540000;1765476990693750;0
438;1765476990693752;-1867,905000;1765476990693751;370,110000;1765476990693752;0
439;1765476990693753;-2511,210000;1765476990693753;370,110000;1765476990693752;0
440;1765476990693754;-2511,210000;1765476990693753;50,895000;1765476990693754;0
441;1765476990693755;-2382,705000;1765476990693755;50,895000;1765476990693754;0
442;1765476990693756;-2382,705000;1765476990693755;268,125000;1765476990693756;0
443;1765476990693757;-2331,225000;1765476990693757;268,125000;1765476990693756;0
444;1765476990693758;-2182,440000;1765476990693758;119,535000;1765476990693758;0
445;1765476990693759;-2182,440000;1765476990693758;606,255000;1765476990693759;0
446;1765476990693760;-2647,905000;1765476990693760;606,255000;1765476990693759;0
447;1765476990693761;-2647,905000;1765476990693760;51,870000;1765476990693761;0
448;1765476990693762;-2647,905000;1765476990693760;120,510000;1765476990693762;0
449;1765476990693764;-2909,790000;1765476990693764;120,510000;1765476990693762;0
450;1765476990693765;-2386,020000;1765476990693765;4,095000;1765476990693765;0
451;1765476990693766;-2386,020000;1765476990693765;232,635000;1765476990693766;0
452;1765476990693767;-3607,305000;1765476990693767;232,635000;1765476990693766;0
453;1765476990693768;-3607,305000;1765476990693767;-8,190000;1765476990693768;0
454;1765476990693769;-3517,410000;1765476990693769;-8,190000;1765476990693768;0
455;1765476990693770;-3517,410000;1765476990693769;-236,730000;1765476990693770;0
456;1765476990693772;-3345,810000;1765476990693772;-236,730000;1765476990693770;0
457;1765476990693773;-3345,810000;1765476990693772;-33,345000;1765476990693773;0
458;1765476990693774;-1754,025000;1765476990693774;-33,345000;1765476990693773;0
459;1765476990693775;-1754,025000;1765476990693774;679,185000;1765476990693775;0
460;1765476990693776;-2974,530000;1765476990693776;679,185000;1765476990693775;0
461;1765476990693777;-2974,530000;1765476990693776;447,330000;1765476990693777;0
462;1765476990693779;-2603,250000;1765476990693779;129,870000;1765476990693779;0
463;1765476990693780;-2098,785000;1765476990693780;129,870000;1765476990693779;0
464;1765476990693781;-2098,785000;1765476990693780;451,230000;1765476990693781;0
465;1765476990693782;-3363,165000;1765476990693782;451,230000;1765476990693781;0
466;1765476990693783;-3363,165000;1765476990693782;-69,225000;1765476990693783;0
467;1765476990693784;-3212,820000;1765476990693784;-69,225000;1765476990693783;0
468;1765476990693785;-3212,820000;1765476990693784;116,610000;1765476990693785;0
469;1765476990693786;-3585,075000;1765476990693786;-118,170000;1765476990693786;0
470;1765476990693787;-2480,595000;1765476990693787;-118,170000;1765476990693786;0
471;1765476990693788;-2480,595000;1765476990693787;261,105000;1765476990693788;0
472;1765476990693789;-3162,120000;1765476990693789;261,105000;1765476990693788;0
473;1765476990693790;-3162,120000;1765476990693789;-108,420000;1765476990693790;0
474;1765476990693792;-2912,520000;1765476990693792;-186,225000;1765476990693792;0
475;1765476990693793;-2837,250000;1765476990693793;-186,225000;1765476990693792;0
476;1765476990693794;-2837,250000;1765476990693793;112,320000;1765476990693794;0
477;1765476990693795;-2880,735000;1765476990693795;112,320000;1765476990693794;0
478;1765476990693796;-2880,735000;1765476990693795;-219,570000;1765476990693796;0
479;1765476990693797;-3244,995000;1765476990693797;-307,515000;1765476990693797;0
480;1765476990693798;-1917,630000;1765476990693798;-307,515000;1765476990693797;0
481;1765476990693799;-1917,630000;1765476990693798;163,995000;1765476990693799;0
482;1765476990693800;-2110,095000;1765476990693800;163,995000;1765476990693799;0
483;1765476990693802;-2110,095000;1765476990693800;251,550000;1765476990693802;0
484;1765476990693803;-2906,085000;1765476990693803;251,550000;1765476990693802;0
485;1765476990693804;-2906,085000;1765476990693803;3,705000;1765476990693804;0
486;1765476990696471;-2032,290000;1765476990696471;3,705000;1765476990693804;0
487;1765476990696476;-2032,290000;1765476990696471;-292,500000;1765476990696476;0
488;1765476990696478;-578,370000;1765476990696478;-292,500000;1765476990696476;0
489;1765476990696479;-578,370000;1765476990696478;752,700000;1765476990696479;0
490;1765476990696480;-1884,090000;1765476990696480;752,700000;1765476990696479;0
491;1765476990696481;-1884,090000;1765476990696480;-116,025000;1765476990696481;0
492;1765476990696482;-1963,845000;1765476990696482;-116,025000;1765476990696481;0
493;1765476990696483;-1963,845000;1765476990696482;-116,805000;1765476990696483;0
494;1765476990696484;-2522,910000;1765476990696484;-116,805000;1765476990696483;0
495;1765476990696485;-2522,910000;1765476990696484;-328,575000;1765476990696485;0
496;1765476990696486;-1772,745000;1765476990696486;-328,575000;1765476990696485;0
497;1765476990696487;-1772,745000;1765476990696486;65,910000;1765476990696487;0
498;1765476990696488;-1098,630000;1765476990696488;65,910000;1765476990696487;0
499;1765476990696489;-1098,630000;1765476990696488;462,735000;1765476990696489;0
500;1765476990696490;-946,725000;1765476990696490;462,735000;1765476990696489;0
501;1765476990696491;-946,725000;1765476990696490;569,790000;1765476990696491;0
502;1765476990696492;-1189,695000;1765476990696492;569,790000;1765476990696491;0
503;1765476990696493;-1189,695000;1765476990696492;241,410000;1765476990696493;0
504;1765476990696494;-2230,020000;1765476990696494;241,410000;1765476990696493;0
505;1765476990696495;-2230,020000;1765476990696494;-182,130000;1765476990696495;0
506;1765476990696496;-1194,570000;1765476990696496;-182,130000;1765476990696495;0
507;1765476990696497;-1194,570000;1765476990696496;303,420000;1765476990696497;0
508;1765476990696498;-1600,950000;1765476990696498;303,420000;1765476990696497;0
509;1765476990696499;-1600,950000;1765476990696498;304,590000;1765476990696499;0
510;1765476990696500;-1624,545000;1765476990696500;304,590000;1765476990696499;0
511;1765476990696501;-1624,545000;1765476990696500;370,890000;1765476990696501;0
512;1765476990696503;-1298,115000;1765476990696503;370,890000;1765476990696501;0
513;1765476990696504;-1298,115000;1765476990696503;245,505000;1765476990696504;0
514;1765476990696505;-319,410000;1765476990696505;245,505000;1765476990696504;0
515;1765476990696506;-319,410000;1765476990696505;825,240000;1765476990696506;0
516;1765476990696507;-1037,010000;1765476990696507;825,240000;1765476990696506;0
517;1765476990696508;-1037,010000;1765476990696507;294,840000;1765476990696508;0
518;1765476990696509;-1349,985000;1765476990696509;294,840000;1765476990696508;0
519;1765476990696510;-1349,985000;1765476990696509;157,950000;1765476990696510;0
520;1765476990696511;-881,010000;1765476990696511;157,950000;1765476990696510;0
521;1765476990696512;-881,010000;1765476990696511;375,570000;1765476990696512;0
522;1765476990696513;-1556,100000;1765476990696513;375,570000;1765476990696512;0
523;1765476990696514;-1556,100000;1765476990696513;94,380000;1765476990696514;0
524;1765476990696515;-746,265000;1765476990696515;94,380000;1765476990696514;0
525;1765476990696516;-746,265000;1765476990696515;274,170000;1765476990696516;0
526;1765476990696517;-1230,450000;1765476990696517;274,170000;1765476990696516;0
527;1765476990696519;-1230,450000;1765476990696517;-41,730000;1765476990696519;0
528;1765476990696520;-1343,940000;1765476990696520;-41,730000;1765476990696519;0
529;1765476990696521;-1343,940000;1765476990696520;0,975000;1765476990696521;0
530;1765476990696522;-391,170000;1765476990696522;0,975000;1765476990696521;0
531;1765476990696523;-391,170000;1765476990696522;768,690000;1765476990696523;0
532;1765476990696524;-855,270000;1765476990696524;768,690000;1765476990696523;0
533;1765476990696525;-855,270000;1765476990696524;561,600000;1765476990696525;0
534;1765476990696526;-450,450000;1765476990696526;561,600000;1765476990696525;0
535;1765476990696527;-450,450000;1765476990696526;335,985000;1765476990696527;0
536;1765476990696528;-1809,795000;1765476990696528;335,985000;1765476990696527;0
537;1765476990696529;-1809,795000;1765476990696528;-473,265000;1765476990696529;0
538;1765476990696530;-499,785000;1765476990696530;-473,265000;1765476990696529;0
539;1765476990696531;-499,785000;1765476990696530;371,085000;1765476990696531;0
540;1765476990696533;406,380000;1765476990696533;371,085000;1765476990696531;0
541;1765476990696535;406,380000;1765476990696533;740,220000;1765476990696535;0
542;1765476990696536;-1373,775000;1765476990696536;740,220000;1765476990696535;0
543;1765476990696537;-1373,775000;1765476990696536;-353,145000;1765476990696537;0
544;1765476990696538;-1315,080000;1765476990696538;-353,145000;1765476990696537;0
545;1765476990696539;680,550000;1765476990696539;-100,035000;1765476990696539;0
546;1765476990696541;-364,260000;1765476990696541;517,530000;1765476990696541;0
547;1765476990696542;-364,260000;1765476990696541;67,470000;1765476990696542;0
548;1765476990696543;207,870000;1765476990696543;67,470000;1765476990696542;0
549;1765476990696544;207,870000;1765476990696543;459,615000;1765476990696544;0
550;1765476990696545;-484,770000;1765476990696545;459,615000;1765476990696544;0
551;1765476990696546;-484,770000;1765476990696545;47,775000;1765476990696546;0
552;1765476990696549;1349,595000;1765476990696549;47,775000;1765476990696546;0
553;1765476990696550;1349,595000;1765476990696549;866,775000;1765476990696550;0
554;1765476990696551;-80,145000;1765476990696551;866,775000;1765476990696550;0
555;1765476990696552;-80,145000;1765476990696551;288,990000;1765476990696552;0
556;1765476990696553;622,050000;1765476990696553;288,990000;1765476990696552;0
557;1765476990696554;622,050000;1765476990696553;454,155000;1765476990696554;0
558;1765476990696555;588,120000;1765476990696555;83,850000;1765476990696555;0
559;1765476990696556;451,230000;1765476990696556;83,850000;1765476990696555;0
560;1765476990696557;451,230000;1765476990696556;426,270000;1765476990696557;0
561;1765476990696558;490,620000;1765476990696558;426,270000;1765476990696557;0
562;1765476990696559;490,620000;1765476990696558;14,040000;1765476990696559;0
563;1765476990756760;-3908,970000;1765476990756760;14,040000;1765476990696559;0
564;1765476990756765;-3908,970000;1765476990756760;465,075000;1765476990756765;0
565;1765476990756767;2130,765000;1765476990756767;465,075000;1765476990756765;0
566;1765476990756768;2130,765000;1765476990756767;288,795000;1765476990756768;0
567;1765476990756769;1702,935000;1765476990756769;288,795000;1765476990756768;0
568;1765476990756772;1702,935000;1765476990756769;235,950000;1765476990756772;0
569;1765476990756773;2979,015000;1765476990756773;235,950000;1765476990756772;0
570;1765476990756774;2979,015000;1765476990756773;577,200000;1765476990756774;0
571;1765476990756775;2292,615000;1765476990756775;577,200000;1765476990756774;0
572;1765476990756776;2292,615000;1765476990756775;319,995000;1765476990756776;0
573;1765476990756777;2385,630000;1765476990756777;319,995000;1765476990756776;0
574;1765476990756778;2385,630000;1765476990756777;228,150000;1765476990756778;0
575;1765476990756779;3349,905000;1765476990756779;228,150000;1765476990756778;0
576;1765476990756780;3349,905000;1765476990756779;508,170000;1765476990756780;0
577;1765476990756781;2772,120000;1765476990756781;508,170000;1765476990756780;0
578;1765476990756782;2772,120000;1765476990756781;360,750000;1765476990756782;0
579;1765476990756783;2231,775000;1765476990756783;360,750000;1765476990756782;0
580;1765476990756784;2231,775000;1765476990756783;-296,010000;1765476990756784;0
581;1765476990756785;2231,775000;1765476990756783;-473,265000;1765476990756785;0
582;1765476990756787;2072,070000;1765476990756787;-473,265000;1765476990756785;0
583;1765476990756788;2798,055000;1765476990756788;-908,505000;1765476990756788;0
584;1765476990756790;2932,215000;1765476990756790;55,575000;1765476990756790;0
585;1765476990756791;2932,215000;1765476990756790;-356,265000;1765476990756791;0
586;1765476990756792;2415,855000;1765476990756792;-356,265000;1765476990756791;0
587;1765476990756793;2415,855000;1765476990756792;-508,365000;1765476990756793;0
588;1765476990756794;2732,535000;1765476990756794;-508,365000;1765476990756793;0
589;1765476990756795;2732,535000;1765476990756794;-171,210000;1765476990756795;0
590;1765476990756796;3916,380000;1765476990756796;-171,210000;1765476990756795;0
591;1765476990756797;2706,795000;1765476990756797;384,930000;1765476990756797;0
592;1765476990756798;2706,795000;1765476990756797;-239,265000;1765476990756798;0
593;1765476990756800;2706,795000;1765476990756797;-29,250000;1765476990756800;0
594;1765476990756801;3230,565000;1765476990756801;-29,250000;1765476990756800;0
595;1765476990756802;3230,565000;1765476990756801;85,215000;1765476990756802;0
596;1765476990756803;3986,775000;1765476990756803;85,215000;1765476990756802;0
597;1765476990756804;2724,735000;1765476990756804;271,245000;1765476990756804;0
598;1765476990756805;2724,735000;1765476990756804;-300,495000;1765476990756805;0
599;1765476990756806;4783,935000;1765476990756806;-300,495000;1765476990756805;0
600;1765476990756807;4783,935000;1765476990756806;745,485000;1765476990756807;0
601;1765476990756808;3299,790000;1765476990756808;745,485000;1765476990756807;0
602;1765476990756809;3299,790000;1765476990756808;-20,475000;1765476990756809;0
603;1765476990756810;3343,275000;1765476990756810;421,980000;1765476990756810;0
604;1765476990756811;3696,030000;1765476990756811;421,980000;1765476990756810;0
605;1765476990756812;3696,030000;1765476990756811;572,130000;1765476990756812;0
606;1765476990756813;3183,765000;1765476990756813;572,130000;1765476990756812;0
607;1765476990756814;3183,765000;1765476990756813;100,815000;1765476990756814;0
608;1765476990756815;2705,235000;1765476990756815;-83,850000;1765476990756815;0
609;1765476990756816;2493,660000;1765476990756816;-83,850000;1765476990756815;0
610;1765476990756817;2493,660000;1765476990756816;-182,130000;1765476990756817;0
611;1765476990756818;3857,100000;1765476990756818;-182,130000;1765476990756817;0
612;1765476990756819;3857,100000;1765476990756818;195,390000;1765476990756819;0
613;1765476990756820;2822,430000;1765476990756820;195,390000;1765476990756819;0
614;1765476990756821;2822,430000;1765476990756820;-143,130000;1765476990756821;0
615;1765476990756822;1961,310000;1765476990756822;-143,130000;1765476990756821;0
616;1765476990756823;1961,310000;1765476990756822;257,790000;1765476990756823;0
617;1765476990756824;2192,775000;1765476990756824;163,020000;1765476990756824;0
618;1765476990756825;2225,535000;1765476990756825;163,020000;1765476990756824;0
619;1765476990756826;2225,535000;1765476990756825;67,665000;1765476990756826;0
620;1765476990756827;1543,230000;1765476990756827;67,665000;1765476990756826;0
621;1765476990756828;1543,230000;1765476990756827;95,550000;1765476990756828;0
622;1765476990756829;2120,430000;1765476990756829;95,550000;1765476990756828;0
623;1765476990756830;2120,430000;1765476990756829;327,795000;1765476990756830;0
624;1765476990756832;2003,820000;1765476990756832;327,795000;1765476990756830;0
625;1765476990756837;2003,820000;1765476990756832;165,360000;1765476990756837;0
626;1765476990756838;1651,455000;1765476990756838;-75,465000;1765476990756838;0
627;1765476990756839;2209,350000;1765476990756839;-75,465000;1765476990756838;0
628;1765476990756840;2209,350000;1765476990756839;200,070000;1765476990756840;0
629;1765476990756841;2028,390000;1765476990756841;200,070000;1765476990756840;0
630;1765476990756842;1881,555000;1765476990756842;23,790000;1765476990756842;0
631;1765476990756843;1881,555000;1765476990756842;-246,870000;1765476990756843;0
632;1765476990756844;2658,630000;1765476990756844;-246,870000;1765476990756843;0
633;1765476990756845;2658,630000;1765476990756844;387,855000;1765476990756845;0
634;1765476990756846;2038,140000;1765476990756846;-51,090000;1765476990756846;0
635;1765476990814901;-3908,580000;1765476990814901;-51,090000;1765476990756846;0
636;1765476990814909;-3908,580000;1765476990814901;67,860000;1765476990814909;0
637;1765476990814911;3086,070000;1765476990814911;67,860000;1765476990814909;0
638;1765476990814912;3086,070000;1765476990814911;-159,705000;1765476990814912;0
639;1765476990814914;3980,145000;1765476990814914;-159,705000;1765476990814912;0
640;1765476990814915;3980,145000;1765476990814914;770,445000;1765476990814915;0
641;1765476990814917;3266,055000;1765476990814917;770,445000;1765476990814915;0
642;1765476990814918;3266,055000;1765476990814917;61,035000;1765476990814918;0
643;1765476990814919;2961,660000;1765476990814919;61,035000;1765476990814918;0
644;1765476990814921;2961,660000;1765476990814919;-215,475000;1765476990814921;0
645;1765476990814922;4626,765000;1765476990814922;-215,475000;1765476990814921;0
646;1765476990814923;4626,765000;1765476990814922;819,975000;1765476990814923;0
647;1765476990814925;2969,850000;1765476990814925;819,975000;1765476990814923;0
648;1765476990814926;2969,850000;1765476990814925;236,730000;1765476990814926;0
649;1765476990814928;2980,575000;1765476990814928;236,730000;1765476990814926;0
650;1765476990814929;2980,575000;1765476990814928;60,255000;1765476990814929;0
651;1765476990814930;3922,230000;1765476990814930;60,255000;1765476990814929;0
652;1765476990814931;3922,230000;1765476990814930;6,630000;1765476990814931;0
653;1765476990814933;3948,750000;1765476990814933;6,630000;1765476990814931;0
654;1765476990814934;3948,750000;1765476990814933;245,115000;1765476990814934;0
655;1765476990814935;2696,070000;1765476990814935;245,115000;1765476990814934;0
656;1765476990814938;2696,070000;1765476990814935;-39,585000;1765476990814938;0
657;1765476990814940;2825,355000;1765476990814940;-39,585000;1765476990814938;0
658;1765476990814941;2825,355000;1765476990814940;156,195000;1765476990814941;0
659;1765476990814942;3295,695000;1765476990814942;156,195000;1765476990814941;0
660;1765476990814943;3295,695000;1765476990814942;1,755000;1765476990814943;0
661;1765476990814944;3411,135000;1765476990814944;1,755000;1765476990814943;0
662;1765476990814946;3411,135000;1765476990814944;487,500000;1765476990814946;0
663;1765476990814947;4082,910000;1765476990814947;487,500000;1765476990814946;0
664;1765476990814948;4082,910000;1765476990814947;486,135000;1765476990814948;0
665;1765476990814949;3845,985000;1765476990814949;486,135000;1765476990814948;0
666;1765476990814950;3845,985000;1765476990814949;513,630000;1765476990814950;0
667;1765476990814951;3140,865000;1765476990814951;513,630000;1765476990814950;0
668;1765476990814952;3140,865000;1765476990814951;185,055000;1765476990814952;0
669;1765476990814953;2656,290000;1765476990814953;185,055000;1765476990814952;0
670;1765476990814954;2656,290000;1765476990814953;53,430000;1765476990814954;0
671;1765476990814955;3668,535000;1765476990814955;53,430000;1765476990814954;0
672;1765476990814956;3668,535000;1765476990814955;126,360000;1765476990814956;0
673;1765476990814957;3066,375000;1765476990814957;126,360000;1765476990814956;0
674;1765476990814958;3066,375000;1765476990814957;-25,935000;1765476990814958;0
675;1765476990814959;3678,090000;1765476990814959;-25,935000;1765476990814958;0
676;1765476990814960;3678,090000;1765476990814959;442,065000;1765476990814960;0
677;1765476990814961;3172,455000;1765476990814961;442,065000;1765476990814960;0
678;1765476990814962;3172,455000;1765476990814961;-296,595000;1765476990814962;0
679;1765476990814963;2421,120000;1765476990814963;-296,595000;1765476990814962;0
680;1765476990814964;2421,120000;1765476990814963;-307,710000;1765476990814964;0
681;1765476990814966;2010,840000;1765476990814966;-307,710000;1765476990814964;0
682;1765476990814967;2010,840000;1765476990814966;-426,465000;1765476990814967;0
683;1765476990814968;3150,615000;1765476990814968;-426,465000;1765476990814967;0
684;1765476990814969;3150,615000;1765476990814968;183,495000;1765476990814969;0
685;1765476990814970;3150,615000;1765476990814968;-40,950000;1765476990814970;0
686;1765476990814972;2316,990000;1765476990814972;-40,950000;1765476990814970;0
687;1765476990814973;2316,990000;1765476990814972;-254,085000;1765476990814973;0
688;1765476990814974;3007,680000;1765476990814974;-254,085000;1765476990814973;0
689;1765476990814975;3007,680000;1765476990814974;340,665000;1765476990814975;0
690;1765476990814976;2380,950000;1765476990814976;340,665000;1765476990814975;0
691;1765476990814977;2380,950000;1765476990814976;191,880000;1765476990814977;0
692;1765476990814978;3589,950000;1765476990814978;191,880000;1765476990814977;0
693;1765476990814979;3589,950000;1765476990814978;706,095000;1765476990814979;0
694;1765476990814980;1867,710000;1765476990814980;706,095000;1765476990814979;0
695;1765476990814981;1867,710000;1765476990814980;-355,875000;1765476990814981;0
696;1765476990814982;3422,640000;1765476990814982;-355,875000;1765476990814981;0
697;1765476990814983;3422,640000;1765476990814982;552,435000;1765476990814983;0
698;1765476990814984;1529,580000;1765476990814984;552,435000;1765476990814983;0
699;1765476990814985;1529,580000;1765476990814984;-121,680000;1765476990814985;0
700;1765476990814986;1529,580000;1765476990814984;228,150000;1765476990814986;0
701;1765476990814988;2400,060000;1765476990814988;228,150000;1765476990814986;0
702;1765476990814989;2400,060000;1765476990814988;452,595000;1765476990814989;0
703;1765476990814990;2991,105000;1765476990814990;452,595000;1765476990814989;0
704;1765476990814991;2991,105000;1765476990814990;451,230000;1765476990814991;0
705;1765476990814992;2504,190000;1765476990814992;451,230000;1765476990814991;0
706;1765476990814993;2504,190000;1765476990814992;362,505000;1765476990814993;0
707;1765476990814994;2464,410000;1765476990814994;362,505000;1765476990814993;0
708;1765476990814995;2464,410000;1765476990814994;713,310000;1765476990814995;0
709;1765476990814996;717,015000;1765476990814996;713,310000;1765476990814995;0
710;1765476990814997;717,015000;1765476990814996;-16,965000;1765476990814997;0
711;1765476990814998;1414,530000;1765476990814998;-16,965000;1765476990814997;0
712;1765476990814999;1414,530000;1765476990814998;639,990000;1765476990814999;0
713;1765476990815000;1697,475000;1765476990815000;639,990000;1765476990814999;0
714;1765476990815001;1697,475000;1765476990815000;725,595000;1765476990815001;0
715;1765476990874241;-3917,940000;1765476990874241;725,595000;1765476990815001;0
716;1765476990874247;-3917,940000;1765476990874241;94,575000;1765476990874247;0
717;1765476990874249;385,125000;1765476990874249;94,575000;1765476990874247;0
718;1765476990874250;385,125000;1765476990874249;465,270000;1765476990874250;0
719;1765476990874251;668,655000;1765476990874251;465,270000;1765476990874250;0
720;1765476990874252;668,655000;1765476990874251;749,775000;1765476990874252;0
721;1765476990874254;223,470000;1765476990874254;749,775000;1765476990874252;0
722;1765476990874255;223,470000;1765476990874254;514,215000;1765476990874255;0
723;1765476990874256;-117,780000;1765476990874256;514,215000;1765476990874255;0
724;1765476990874257;-117,780000;1765476990874256;712,140000;1765476990874257;0
725;1765476990874258;-914,940000;1765476990874258;712,140000;1765476990874257;0
726;1765476990874259;-914,940000;1765476990874258;453,570000;1765476990874259;0
727;1765476990874261;-542,100000;1765476990874261;453,570000;1765476990874259;0
728;1765476990874262;-542,100000;1765476990874261;362,895000;1765476990874262;0
729;1765476990874263;-1090,050000;1765476990874263;362,895000;1765476990874262;0
730;1765476990874264;-1090,050000;1765476990874263;210,210000;1765476990874264;0
731;1765476990874267;-1464,255000;1765476990874267;210,210000;1765476990874264;0
732;1765476990874268;-1464,255000;1765476990874267;-140,010000;1765476990874268;0
733;1765476990874269;-1401,465000;1765476990874269;-140,010000;1765476990874268;0
734;1765476990874270;-1401,465000;1765476990874269;130,065000;1765476990874270;0
735;1765476990874271;-881,205000;1765476990874271;130,065000;1765476990874270;0
736;1765476990874272;-881,205000;1765476990874271;213,135000;1765476990874272;0
737;1765476990874273;-841,620000;1765476990874273;213,135000;1765476990874272;0
738;1765476990874274;-841,620000;1765476990874273;772,785000;1765476990874274;0
739;1765476990874276;-735,930000;1765476990874276;772,785000;1765476990874274;0
740;1765476990874277;-735,930000;1765476990874276;962,910000;1765476990874277;0
741;1765476990874278;-2160,210000;1765476990874278;962,910000;1765476990874277;0
742;1765476990874279;-2160,210000;1765476990874278;-73,905000;1765476990874279;0
743;1765476990874280;-921,570000;1765476990874280;-73,905000;1765476990874279;0
744;1765476990874281;-921,570000;1765476990874280;391,365000;1765476990874281;0
745;1765476990874282;-2189,265000;1765476990874282;391,365000;1765476990874281;0
746;1765476990874283;-2189,265000;1765476990874282;170,040000;1765476990874283;0
747;1765476990874284;-1629,810000;1765476990874284;249,990000;1765476990874284;0
748;1765476990874285;-1296,360000;1765476990874285;249,990000;1765476990874284;0
749;1765476990874286;-1296,360000;1765476990874285;505,830000;1765476990874286;0
750;1765476990874287;-3162,900000;1765476990874287;505,830000;1765476990874286;0
751;1765476990874288;-3162,900000;1765476990874287;-329,550000;1765476990874288;0
752;1765476990874289;-1194,570000;1765476990874289;-329,550000;1765476990874288;0
753;1765476990874290;-1194,570000;1765476990874289;750,750000;1765476990874290;0
754;1765476990874291;-2438,280000;1765476990874291;750,750000;1765476990874290;0
755;1765476990874292;-2438,280000;1765476990874291;276,705000;1765476990874292;0
756;1765476990874293;-2980,770000;1765476990874293;276,705000;1765476990874292;0
757;1765476990874294;-2980,770000;1765476990874293;33,345000;1765476990874294;0
758;1765476990874295;-2967,705000;1765476990874295;33,345000;1765476990874294;0
759;1765476990874296;-2967,705000;1765476990874295;283,530000;1765476990874296;0
760;1765476990874297;-2165,085000;1765476990874297;283,530000;1765476990874296;0
761;1765476990874298;-2357,160000;1765476990874298;429,585000;1765476990874298;0
762;1765476990874299;-2357,160000;1765476990874298;104,325000;1765476990874299;0
763;1765476990874300;-2827,890000;1765476990874300;104,325000;1765476990874299;0
764;1765476990874301;-2827,890000;1765476990874300;207,870000;1765476990874301;0
765;1765476990874302;-2973,945000;1765476990874302;207,870000;1765476990874301;0
766;1765476990874303;-2973,945000;1765476990874302;89,505000;1765476990874303;0
767;1765476990874304;-2454,465000;1765476990874304;89,505000;1765476990874303;0
768;1765476990874306;-2454,465000;1765476990874304;308,100000;1765476990874306;0
769;1765476990874307;-2418,000000;1765476990874307;308,100000;1765476990874306;0
770;1765476990874308;-2418,000000;1765476990874307;602,160000;1765476990874308;0
771;1765476990874309;-2423,460000;1765476990874309;602,160000;1765476990874308;0
772;1765476990874310;-2423,460000;1765476990874309;684,450000;1765476990874310;0
773;1765476990874311;-3355,365000;1765476990874311;684,450000;1765476990874310;0
774;1765476990874312;-3355,365000;1765476990874311;-59,085000;1765476990874312;0
775;1765476990874313;-3355,365000;1765476990874311;616,590000;1765476990874313;0
776;1765476990874314;-2247,570000;1765476990874314;616,590000;1765476990874313;0
777;1765476990874315;-2247,570000;1765476990874314;561,015000;1765476990874315;0
778;1765476990874316;-2917,200000;1765476990874316;561,015000;1765476990874315;0
779;1765476990874317;-2917,200000;1765476990874316;326,430000;1765476990874317;0
780;1765476990874318;-3157,830000;1765476990874318;133,575000;1765476990874318;0
781;1765476990874319;-2317,185000;1765476990874319;133,575000;1765476990874318;0
782;1765476990874320;-2317,185000;1765476990874319;428,415000;1765476990874320;0
783;1765476990874321;-3408,015000;1765476990874321;428,415000;1765476990874320;0
784;1765476990874322;-3408,015000;1765476990874321;-834,600000;1765476990874322;0
785;1765476990874323;-3206,385000;1765476990874323;-769,470000;1765476990874323;0
786;1765476990874324;-2175,225000;1765476990874324;-769,470000;1765476990874323;0
787;1765476990874325;-2175,225000;1765476990874324;-168,870000;1765476990874325;0
788;1765476990874326;-1914,705000;1765476990874326;-168,870000;1765476990874325;0
789;1765476990874327;-1914,705000;1765476990874326;222,495000;1765476990874327;0
790;1765476990874328;-2236,845000;1765476990874328;222,495000;1765476990874327;0
791;1765476990874329;-2236,845000;1765476990874328;-50,505000;1765476990874329;0
792;1765476990876980;-3928,665000;1765476990876980;-50,505000;1765476990874329;0
793;1765476990876984;-3928,665000;1765476990876980;178,815000;1765476990876984;0
794;1765476990876986;-3319,875000;1765476990876986;178,815000;1765476990876984;0
795;1765476990876987;-3319,875000;1765476990876986;-273,000000;1765476990876987;0
796;1765476990876988;-3377,010000;1765476990876988;-273,000000;1765476990876987;0
797;1765476990876989;-3377,010000;1765476990876988;-149,760000;1765476990876989;0
798;1765476990876990;-2575,560000;1765476990876990;-36,465000;1765476990876990;0
799;1765476990876992;-2934,750000;1765476990876992;-36,465000;1765476990876990;0
800;1765476990876993;-2450,370000;1765476990876993;-10,920000;1765476990876993;0
801;1765476990876994;-2450,370000;1765476990876993;506,220000;1765476990876994;0
802;1765476990876995;-1937,715000;1765476990876995;506,220000;1765476990876994;0
803;1765476990876996;-1937,715000;1765476990876995;276,315000;1765476990876996;0
804;1765476990876997;-3190,005000;1765476990876997;276,315000;1765476990876996;0
805;1765476990876998;-3190,005000;1765476990876997;-172,185000;1765476990876998;0
806;1765476990876999;-1733,940000;1765476990876999;-172,185000;1765476990876998;0
807;1765476990877000;-1733,940000;1765476990876999;680,745000;1765476990877000;0
808;1765476990877001;-2003,235000;1765476990877001;680,745000;1765476990877000;0
809;1765476990877002;-2003,235000;1765476990877001;482,235000;1765476990877002;0
810;1765476990877003;-1903,395000;1765476990877003;737,295000;1765476990877003;0
811;1765476990877004;-2569,320000;1765476990877004;737,295000;1765476990877003;0
812;1765476990877005;-2569,320000;1765476990877004;516,750000;1765476990877005;0
813;1765476990877006;-2514,330000;1765476990877006;516,750000;1765476990877005;0
814;1765476990877007;-2386,410000;1765476990877007;176,670000;1765476990877007;0
815;1765476990877008;-2386,410000;1765476990877007;234,975000;1765476990877008;0
816;1765476990877009;-2374,515000;1765476990877009;234,975000;1765476990877008;0
817;1765476990877010;-2374,515000;1765476990877009;295,815000;1765476990877010;0
818;1765476990877011;-2841,930000;1765476990877011;23,985000;1765476990877011;0
819;1765476990877012;-1006,590000;1765476990877012;23,985000;1765476990877011;0
820;1765476990877013;-1006,590000;1765476990877012;748,995000;1765476990877013;0
821;1765476990877014;-2030,535000;1765476990877014;748,995000;1765476990877013;0
822;1765476990877015;-2030,535000;1765476990877014;81,900000;1765476990877015;0
823;1765476990877016;-2840,175000;1765476990877016;-286,650000;1765476990877016;0
824;1765476990877017;-1902,225000;1765476990877017;-286,650000;1765476990877016;0
825;1765476990877018;-1902,225000;1765476990877017;-35,490000;1765476990877018;0
826;1765476990877019;-982,410000;1765476990877019;351,195000;1765476990877019;0
827;1765476990877020;-1582,815000;1765476990877020;351,195000;1765476990877019;0
828;1765476990877021;-1582,815000;1765476990877020;170,430000;1765476990877021;0
829;1765476990877022;-1918,410000;1765476990877022;-6,825000;1765476990877022;0
830;1765476990877023;-1643,460000;1765476990877023;-6,825000;1765476990877022;0
831;1765476990877024;-1643,460000;1765476990877023;-54,210000;1765476990877024;0
832;1765476990877025;-768,300000;1765476990877025;470,535000;1765476990877025;0
833;1765476990877026;-1277,250000;1765476990877026;470,535000;1765476990877025;0
834;1765476990877027;-1277,250000;1765476990877026;264,030000;1765476990877027;0
835;1765476990877028;-1460,745000;1765476990877028;56,355000;1765476990877028;0
836;1765476990877029;-1443,390000;1765476990877029;56,355000;1765476990877028;0
837;1765476990877030;-1443,390000;1765476990877029;307,320000;1765476990877030;0
838;1765476990877031;-1443,390000;1765476990877029;790,335000;1765476990877031;0
839;1765476990877032;-603,330000;1765476990877032;790,335000;1765476990877031;0
840;1765476990877033;-603,330000;1765476990877032;504,075000;1765476990877033;0
841;1765476990877034;-1264,770000;1765476990877034;356,070000;1765476990877034;0
842;1765476990877038;-1653,405000;1765476990877038;356,070000;1765476990877034;0
843;1765476990877039;-1048,515000;1765476990877039;-50,115000;1765476990877039;0
844;1765476990877040;-1048,515000;1765476990877039;356,460000;1765476990877040;0
845;1765476990877041;-1676,610000;1765476990877041;356,460000;1765476990877040;0
846;1765476990877042;-1676,610000;1765476990877041;49,920000;1765476990877042;0
847;1765476990877043;-1625,910000;1765476990877043;-261,495000;1765476990877043;0
848;1765476990877044;-1447,875000;1765476990877044;-261,495000;1765476990877043;0
849;1765476990877045;-1447,875000;1765476990877044;481,260000;1765476990877045;0
850;1765476990877046;-1447,875000;1765476990877044;328,965000;1765476990877046;0
851;1765476990877047;-1065,285000;1765476990877047;328,965000;1765476990877046;0
852;1765476990877048;-1065,285000;1765476990877047;301,275000;1765476990877048;0
853;1765476990877049;-1065,285000;1765476990877049;405,795000;1765476990877049;0
854;1765476990877050;-1147,770000;1765476990877050;405,795000;1765476990877049;0
855;1765476990877051;-1147,770000;1765476990877050;191,100000;1765476990877051;0
856;1765476990877052;-1484,925000;1765476990877052;-134,745000;1765476990877052;0
857;1765476990877053;-481,065000;1765476990877053;-134,745000;1765476990877052;0
858;1765476990877054;-481,065000;1765476990877053;317,655000;1765476990877054;0
859;1765476990994399;-3920,280000;1765476990994399;317,655000;1765476990877054;0
860;1765476990994405;-3920,280000;1765476990994399;-42,705000;1765476990994405;0
861;1765476990994407;530,790000;1765476990994407;-42,705000;1765476990994405;0
862;1765476990994408;530,790000;1765476990994407;537,420000;1765476990994408;0
863;1765476990994409;-208,065000;1765476990994409;537,420000;1765476990994408;0
864;1765476990994410;-208,065000;1765476990994409;-383,565000;1765476990994410;0
865;1765476990994412;-980,850000;1765476990994412;-383,565000;1765476990994410;0
866;1765476990994413;-980,850000;1765476990994412;-694,785000;1765476990994413;0
867;1765476990994414;267,930000;1765476990994414;-694,785000;1765476990994413;0
868;1765476990994415;267,930000;1765476990994414;-316,290000;1765476990994415;0
869;1765476990994416;-258,960000;1765476990994416;-316,290000;1765476990994415;0
870;1765476990994417;-258,960000;1765476990994416;-222,690000;1765476990994417;0
871;1765476990994418;355,875000;1765476990994418;-222,690000;1765476990994417;0
872;1765476990994419;355,875000;1765476990994418;-79,365000;1765476990994419;0
873;1765476990994420;-120,705000;1765476990994420;-79,365000;1765476990994419;0
874;1765476990994421;-120,705000;1765476990994420;-578,370000;1765476990994421;0
875;1765476990994422;1183,650000;1765476990994422;-578,370000;1765476990994421;0
876;1765476990994423;524,940000;1765476990994423;449,280000;1765476990994423;0
877;1765476990994425;524,940000;1765476990994423;-104,520000;1765476990994425;0
878;1765476990994426;234,195000;1765476990994426;-104,520000;1765476990994425;0
879;1765476990994427;234,195000;1765476990994426;-118,365000;1765476990994427;0
880;1765476990994428;622,830000;1765476990994428;-118,365000;1765476990994427;0
881;1765476990994431;622,830000;1765476990994428;-137,670000;1765476990994431;0
882;1765476990994432;1513,590000;1765476990994432;-137,670000;1765476990994431;0
883;1765476990994433;2243,085000;1765476990994433;264,420000;1765476990994433;0
884;1765476990994434;2243,085000;1765476990994433;669,825000;1765476990994434;0
885;1765476990994436;1711,710000;1765476990994436;258,180000;1765476990994436;0
886;1765476990994437;1551,030000;1765476990994437;258,180000;1765476990994436;0
887;1765476990994438;1551,030000;1765476990994437;463,320000;1765476990994438;0
888;1765476990994439;1969,695000;1765476990994439;463,320000;1765476990994438;0
889;1765476990994440;1969,695000;1765476990994439;504,855000;1765476990994440;0
890;1765476990994441;1655,745000;1765476990994441;504,855000;1765476990994440;0
891;1765476990994442;1655,745000;1765476990994441;619,710000;1765476990994442;0
892;1765476990994443;2212,470000;1765476990994443;619,710000;1765476990994442;0
893;1765476990994444;2212,470000;1765476990994443;233,025000;1765476990994444;0
894;1765476990994445;2992,275000;1765476990994445;233,025000;1765476990994444;0
895;1765476990994446;1926,990000;1765476990994446;688,155000;1765476990994446;0
896;1765476990994447;1926,990000;1765476990994446;26,910000;1765476990994447;0
897;1765476990994448;2593,110000;1765476990994448;26,910000;1765476990994447;0
898;1765476990994449;2593,110000;1765476990994448;254,085000;1765476990994449;0
899;1765476990994450;2833,155000;1765476990994450;254,085000;1765476990994449;0
900;1765476990994451;2833,155000;1765476990994450;386,295000;1765476990994451;0
901;1765476990994452;3334,305000;1765476990994452;386,295000;1765476990994451;0
902;1765476990994453;2312,895000;1765476990994453;380,055000;1765476990994453;0
903;1765476990994454;2312,895000;1765476990994453;59,475000;1765476990994454;0
904;1765476990994455;2478,255000;1765476990994455;59,475000;1765476990994454;0
905;1765476990994456;2478,255000;1765476990994455;103,935000;1765476990994456;0
906;1765476990994457;3865,875000;1765476990994457;103,935000;1765476990994456;0
907;1765476990994458;3865,875000;1765476990994457;624,780000;1765476990994458;0
908;1765476990994459;3573,375000;1765476990994459;624,780000;1765476990994458;0
909;1765476990994460;3573,375000;1765476990994459;514,410000;1765476990994460;0
910;1765476990994461;4205,175000;1765476990994461;514,410000;1765476990994460;0
911;1765476990994462;4205,175000;1765476990994461;622,050000;1765476990994462;0
912;1765476990994463;4151,550000;1765476990994463;622,050000;1765476990994462;0
913;1765476990994464;3722,745000;1765476990994464;961,935000;1765476990994464;0
914;1765476990994465;3722,745000;1765476990994464;145,665000;1765476990994465;0
915;1765476990994466;3403,335000;1765476990994466;145,665000;1765476990994465;0
916;1765476990994467;3403,335000;1765476990994466;178,035000;1765476990994467;0
917;1765476990994468;4029,285000;1765476990994468;178,035000;1765476990994467;0
918;1765476990994469;4029,285000;1765476990994468;675,870000;1765476990994469;0
919;1765476990994470;3040,440000;1765476990994470;675,870000;1765476990994469;0
920;1765476990994471;3040,440000;1765476990994470;70,980000;1765476990994471;0
921;1765476990994472;4327,245000;1765476990994472;756,600000;1765476990994472;0
922;1765476990994473;3868,605000;1765476990994473;756,600000;1765476990994472;0
923;1765476990994474;3868,605000;1765476990994473;464,295000;1765476990994474;0
924;1765476990994475;3350,880000;1765476990994475;464,295000;1765476990994474;0
925;1765476990994476;3350,880000;1765476990994475;170,430000;1765476990994476;0
926;1765476990994477;4458,480000;1765476990994477;170,430000;1765476990994476;0
927;1765476990994478;4458,480000;1765476990994477;309,855000;1765476990994478;0
928;1765476990994479;4374,630000;1765476990994479;309,855000;1765476990994478;0
929;1765476990994480;3765,255000;1765476990994480;410,085000;1765476990994480;0
930;1765476990994481;3765,255000;1765476990994480;-203,970000;1765476990994481;0
931;1765476990994482;4551,495000;1765476990994482;-203,970000;1765476990994481;0
932;1765476990994483;4551,495000;1765476990994482;130,650000;1765476990994483;0
933;1765476990994484;4136,730000;1765476990994484;130,650000;1765476990994483;0
934;1765476990994485;4136,730000;1765476990994484;3,120000;1765476990994485;0
935;1765476990996844;-3909,360000;1765476990996844;3,120000;1765476990994485;0
936;1765476990996849;-3909,360000;1765476990996844;120,510000;1765476990996849;0
937;1765476990996851;2546,310000;1765476990996851;120,510000;1765476990996849;0
938;1765476990996852;2546,310000;1765476990996851;613,470000;1765476990996852;0
939;1765476990996853;2871,375000;1765476990996853;613,470000;1765476990996852;0
940;1765476990996854;2871,375000;1765476990996853;242,970000;1765476990996854;0
941;1765476990996855;2579,265000;1765476990996855;242,970000;1765476990996854;0
942;1765476990996856;2579,265000;1765476990996855;225,615000;1765476990996856;0
943;1765476990996857;2536,755000;1765476990996857;225,615000;1765476990996856;0
944;1765476990996858;2536,755000;1765476990996857;-39,780000;1765476990996858;0
945;1765476990996859;2883,270000;1765476990996859;-39,780000;1765476990996858;0
946;1765476990996860;2883,270000;1765476990996859;312,780000;1765476990996860;0
947;1765476990996861;2616,510000;1765476990996861;312,780000;1765476990996860;0
948;1765476990996862;2616,510000;1765476990996861;425,295000;1765476990996862;0
949;1765476990996863;2645,760000;1765476990996863;425,295000;1765476990996862;0
950;1765476990996864;2645,760000;1765476990996863;-39,585000;1765476990996864;0
951;1765476990996865;1652,430000;1765476990996865;-39,585000;1765476990996864;0
952;1765476990996866;1652,430000;1765476990996865;-107,250000;1765476990996866;0
953;1765476990996867;2358,915000;1765476990996867;391,560000;1765476990996867;0
954;1765476990996868;3671,070000;1765476990996868;391,560000;1765476990996867;0
955;1765476990996869;3671,070000;1765476990996868;650,910000;1765476990996869;0
956;1765476990996870;2129,790000;1765476990996870;650,910000;1765476990996869;0
957;1765476990996871;2129,790000;1765476990996870;148,785000;1765476990996871;0
958;1765476990996872;2906,085000;1765476990996872;368,940000;1765476990996872;0
959;1765476990996873;3036,540000;1765476990996873;368,940000;1765476990996872;0
960;1765476990996874;3036,540000;1765476990996873;286,065000;1765476990996874;0
961;1765476990996875;2930,655000;1765476990996875;286,065000;1765476990996874;0
962;1765476990996876;2930,655000;1765476990996875;250,380000;1765476990996876;0
963;1765476990996877;2768,610000;1765476990996877;250,380000;1765476990996876;0
964;1765476990996878;2768,610000;1765476990996877;14,040000;1765476990996878;0
965;1765476990996879;445,770000;1765476990996879;609,765000;1765476990996879;0
966;1765476990996880;253,695000;1765476990996880;609,765000;1765476990996879;0
967;1765476990996881;253,695000;1765476990996880;163,020000;1765476990996881;0
968;1765476990996882;813,345000;1765476990996882;163,020000;1765476990996881;0
969;1765476990996883;813,345000;1765476990996882;384,540000;1765476990996883;0
970;1765476990996886;813,345000;1765476990996882;611,910000;1765476990996886;0
971;1765476990996887;1091,025000;1765476990996887;611,910000;1765476990996886;0
972;1765476990996888;1091,025000;1765476990996887;707,070000;1765476990996888;0
973;1765476990996889;-550,875000;1765476990996889;707,070000;1765476990996888;0
974;1765476990996890;-550,875000;1765476990996889;35,295000;1765476990996890;0
975;1765476990996891;-88,530000;1765476990996891;-145,665000;1765476990996891;0
976;1765476990996892;11,505000;1765476990996892;-145,665000;1765476990996891;0
977;1765476990996893;11,505000;1765476990996892;-160,290000;1765476990996893;0
978;1765476990996894;506,415000;1765476990996894;-160,290000;1765476990996893;0
979;1765476990996895;506,415000;1765476990996894;249,600000;1765476990996895;0
980;1765476990996896;-441,285000;1765476990996896;-14,235000;1765476990996896;0
981;1765476990996897;-378,105000;1765476990996897;-14,235000;1765476990996896;0
982;1765476990996898;-378,105000;1765476990996897;-191,100000;1765476990996898;0
983;1765476990996899;421,005000;1765476990996899;-191,100000;1765476990996898;0
984;1765476990996900;-642,330000;1765476990996900;278,655000;1765476990996900;0
985;1765476990996901;-642,330000;1765476990996900;-148,200000;1765476990996901;0
986;1765476990996902;193,830000;1765476990996902;-148,200000;1765476990996901;0
987;1765476990996903;193,830000;1765476990996902;116,220000;1765476990996903;0
988;1765476990996904;-5,265000;1765476990996904;37,245000;1765476990996904;0
989;1765476990996905;-120,705000;1765476990996905;37,245000;1765476990996904;0
990;1765476990996906;-120,705000;1765476990996905;25,740000;1765476990996906;0
991;1765476990996907;257,595000;1765476990996907;25,740000;1765476990996906;0
992;1765476990996908;507,390000;1765476990996908;432,510000;1765476990996908;0
993;1765476990996909;507,390000;1765476990996908;294,450000;1765476990996909;0
994;1765476990996911;507,390000;1765476990996908;673,335000;1765476990996911;0
995;1765476990996912;1181,115000;1765476990996912;673,335000;1765476990996911;0
996;1765476990996913;-630,630000;1765476990996913;659,490000;1765476990996913;0
997;1765476990996914;-630,630000;1765476990996913;-246,675000;1765476990996914;0
998;1765476990996915;584,610000;1765476990996915;-246,675000;1765476990996914;0
999;1765476990996916;584,610000;1765476990996915;569,790000;1765476990996916;0
1000;1765476990996917;-69,615000;1765476990996917;176,670000;1765476990996917;0
1001;1765476990996918;192,855000;1765476990996918;176,670000;1765476990996917;0
1002;1765476990996919;192,855000;1765476990996918;160,485000;1765476990996919;0
1003;1765476990996920;-315,705000;1765476990996920;160,485000;1765476990996919;0
1004;1765476990996921;376,350000;1765476990996921;126,945000;1765476990996921;0
1005;1765476990996922;376,350000;1765476990996921;594,750000;1765476990996922;0
1006;1765476991053796;-3922,620000;1765476991053796;594,750000;1765476990996922;0
1007;1765476991053801;-3922,620000;1765476991053796;160,095000;1765476991053801;0
1008;1765476991053802;-832,065000;1765476991053802;160,095000;1765476991053801;0
1009;1765476991053805;-832,065000;1765476991053802;210,015000;1765476991053805;0
1010;1765476991053806;-701,220000;1765476991053806;210,015000;1765476991053805;0
1011;1765476991053808;-701,220000;1765476991053806;170,430000;1765476991053808;0
1012;1765476991053809;-1364,610000;1765476991053809;170,430000;1765476991053808;0
1013;1765476991053810;-1364,610000;1765476991053809;41,535000;1765476991053810;0
1014;1765476991053811;-1500,915000;1765476991053811;41,535000;1765476991053810;0
1015;1765476991053812;-1500,915000;1765476991053811;-145,665000;1765476991053812;0
1016;1765476991053813;-662,415000;1765476991053813;-145,665000;1765476991053812;0
1017;1765476991053814;-662,415000;1765476991053813;615,615000;1765476991053814;0
1018;1765476991053815;-662,415000;1765476991053813;395,655000;1765476991053815;0
1019;1765476991053816;-828,360000;1765476991053816;395,655000;1765476991053815;0
1020;1765476991053817;-828,360000;1765476991053816;302,055000;1765476991053817;0
1021;1765476991053818;-1618,890000;1765476991053818;302,055000;1765476991053817;0
1022;1765476991053819;-1618,890000;1765476991053818;38,220000;1765476991053819;0
1023;1765476991053820;-2196,675000;1765476991053820;38,220000;1765476991053819;0
1024;1765476991053821;-2196,675000;1765476991053820;-166,725000;1765476991053821;0
1025;1765476991053822;-1697,475000;1765476991053822;8,970000;1765476991053822;0
1026;1765476991053823;-1515,345000;1765476991053823;8,970000;1765476991053822;0
1027;1765476991053824;-1515,345000;1765476991053823;39,390000;1765476991053824;0
1028;1765476991053825;-1198,275000;1765476991053825;39,390000;1765476991053824;0
1029;1765476991053826;-1198,275000;1765476991053825;307,905000;1765476991053826;0
1030;1765476991053827;-548,730000;1765476991053827;307,905000;1765476991053826;0
1031;1765476991053828;-548,730000;1765476991053827;813,150000;1765476991053828;0
1032;1765476991053829;-548,730000;1765476991053827;-101,985000;1765476991053829;0
1033;1765476991053830;-2017,860000;1765476991053830;-101,985000;1765476991053829;0
1034;1765476991053831;-2017,860000;1765476991053830;205,920000;1765476991053831;0
1035;1765476991053832;-2419,560000;1765476991053832;205,920000;1765476991053831;0
1036;1765476991053833;-1804,530000;1765476991053833;-445,185000;1765476991053833;0
1037;1765476991053834;-1804,530000;1765476991053833;42,510000;1765476991053834;0
1038;1765476991053835;-1685,970000;1765476991053835;42,510000;1765476991053834;0
1039;1765476991053836;-1685,970000;1765476991053835;42,510000;1765476991053836;0
1040;1765476991053837;-1978,665000;1765476991053837;42,510000;1765476991053836;0
1041;1765476991053838;-1973,790000;1765476991053838;166,140000;1765476991053838;0
1042;1765476991053839;-1973,790000;1765476991053838;234,780000;1765476991053839;0
1043;1765476991053840;-1520,805000;1765476991053840;234,780000;1765476991053839;0
1044;1765476991053841;-1520,805000;1765476991053840;178,620000;1765476991053841;0
1045;1765476991053842;-1520,805000;1765476991053840;281,775000;1765476991053842;0
1046;1765476991053843;-1950,585000;1765476991053843;281,775000;1765476991053842;0
1047;1765476991053844;-2059,395000;1765476991053844;422,175000;1765476991053844;0
1048;1765476991053845;-2059,395000;1765476991053844;264,225000;1765476991053845;0
1049;1765476991053846;-1460,355000;1765476991053846;264,225000;1765476991053845;0
1050;1765476991053847;-1460,355000;1765476991053846;543,270000;1765476991053847;0
1051;1765476991053848;-2497,755000;1765476991053848;-91,845000;1765476991053848;0
1052;1765476991053849;-1349,985000;1765476991053849;-91,845000;1765476991053848;0
1053;1765476991053850;-1349,985000;1765476991053849;557,115000;1765476991053850;0
1054;1765476991053851;-2487,420000;1765476991053851;195,975000;1765476991053851;0
1055;1765476991053852;-2881,320000;1765476991053852;195,975000;1765476991053851;0
1056;1765476991053853;-2881,320000;1765476991053852;-445,380000;1765476991053853;0
1057;1765476991053854;-2881,320000;1765476991053852;-619,905000;1765476991053854;0
1058;1765476991053855;-2363,400000;1765476991053855;-619,905000;1765476991053854;0
1059;1765476991053856;-2378,610000;1765476991053856;-339,300000;1765476991053856;0
1060;1765476991053857;-2378,610000;1765476991053856;-234,585000;1765476991053857;0
1061;1765476991053858;-1988,610000;1765476991053858;-234,585000;1765476991053857;0
1062;1765476991053859;-2650,050000;1765476991053859;-105,105000;1765476991053859;0
1063;1765476991053860;-2650,050000;1765476991053859;-413,985000;1765476991053860;0
1064;1765476991053861;-1738,620000;1765476991053861;-413,985000;1765476991053860;0
1065;1765476991053862;-190,905000;1765476991053862;-46,020000;1765476991053862;0
1066;1765476991053863;-190,905000;1765476991053862;589,875000;1765476991053863;0
1067;1765476991053864;-1292,850000;1765476991053864;589,875000;1765476991053863;0
1068;1765476991053865;-1292,850000;1765476991053864;183,105000;1765476991053865;0
1069;1765476991053867;-1298,895000;1765476991053867;462,930000;1765476991053867;0
1070;1765476991053868;-1436,175000;1765476991053868;462,930000;1765476991053867;0
1071;1765476991053869;-1436,175000;1765476991053868;519,675000;1765476991053869;0
1072;1765476991053870;-2005,185000;1765476991053870;167,310000;1765476991053870;0
1073;1765476991114258;-3922,620000;1765476991114258;167,310000;1765476991053870;0
1074;1765476991114267;-3922,620000;1765476991114258;468,975000;1765476991114267;0
1075;1765476991114269;-969,930000;1765476991114269;468,975000;1765476991114267;0
1076;1765476991114271;-969,930000;1765476991114269;467,610000;1765476991114271;0
1077;1765476991114273;-2581,020000;1765476991114273;467,610000;1765476991114271;0
1078;1765476991114275;-2581,020000;1765476991114273;53,040000;1765476991114275;0
1079;1765476991114279;-2400,450000;1765476991114279;53,040000;1765476991114275;0
1080;1765476991114281;-2400,450000;1765476991114279;89,310000;1765476991114281;0
1081;1765476991114283;-2129,010000;1765476991114283;89,310000;1765476991114281;0
1082;1765476991114285;-2129,010000;1765476991114283;-98,280000;1765476991114285;0
1083;1765476991114287;-2140,905000;1765476991114287;-98,280000;1765476991114285;0
1084;1765476991114289;-2140,905000;1765476991114287;81,900000;1765476991114289;0
1085;1765476991114290;-2636,985000;1765476991114290;81,900000;1765476991114289;0
1086;1765476991114292;-2636,985000;1765476991114290;125,190000;1765476991114292;0
1087;1765476991114294;-2250,690000;1765476991114294;125,190000;1765476991114292;0
1088;1765476991114296;-2250,690000;1765476991114294;-14,820000;1765476991114296;0
1089;1765476991114298;-2086,110000;1765476991114298;-14,820000;1765476991114296;0
1090;1765476991114300;-2086,110000;1765476991114298;-118,560000;1765476991114300;0
1091;1765476991114302;-1647,945000;1765476991114302;-118,560000;1765476991114300;0
1092;1765476991114304;-1647,945000;1765476991114302;-136,110000;1765476991114304;0
1093;1765476991114308;-2699,775000;1765476991114308;-136,110000;1765476991114304;0
1094;1765476991114310;-2699,775000;1765476991114308;-253,305000;1765476991114310;0
1095;1765476991114312;-1928,550000;1765476991114312;-253,305000;1765476991114310;0
1096;1765476991114313;-1928,550000;1765476991114312;136,110000;1765476991114313;0
1097;1765476991114315;-2617,290000;1765476991114315;136,110000;1765476991114313;0
1098;1765476991114317;-2617,290000;1765476991114315;-323,700000;1765476991114317;0
1099;1765476991114319;-2088,450000;1765476991114319;-323,700000;1765476991114317;0
1100;1765476991114321;-2088,450000;1765476991114319;-200,265000;1765476991114321;0
1101;1765476991114322;-1633,125000;1765476991114322;-200,265000;1765476991114321;0
1102;1765476991114324;-1633,125000;1765476991114322;208,065000;1765476991114324;0
1103;1765476991114325;-1356,225000;1765476991114325;208,065000;1765476991114324;0
1104;1765476991114326;-1356,225000;1765476991114325;594,945000;1765476991114326;0
1105;1765476991114331;-1944,930000;1765476991114331;594,945000;1765476991114326;0
1106;1765476991114332;-1944,930000;1765476991114331;-167,505000;1765476991114332;0
1107;1765476991114333;-1564,290000;1765476991114333;-167,505000;1765476991114332;0
1108;1765476991114334;-1564,290000;1765476991114333;189,150000;1765476991114334;0
1109;1765476991114335;-1044,225000;1765476991114335;189,150000;1765476991114334;0
1110;1765476991114336;-1044,225000;1765476991114335;551,070000;1765476991114336;0
1111;1765476991114337;-932,880000;1765476991114337;551,070000;1765476991114336;0
1112;1765476991114338;-932,880000;1765476991114337;444,015000;1765476991114338;0
1113;1765476991114339;-1565,655000;1765476991114339;444,015000;1765476991114338;0
1114;1765476991114340;-1565,655000;1765476991114339;96,135000;1765476991114340;0
1115;1765476991114341;-1897,545000;1765476991114341;96,135000;1765476991114340;0
1116;1765476991114342;-1897,545000;1765476991114341;98,670000;1765476991114342;0
1117;1765476991114343;-1055,145000;1765476991114343;98,670000;1765476991114342;0
1118;1765476991114344;-1055,145000;1765476991114343;224,055000;1765476991114344;0
1119;1765476991114345;-1239,810000;1765476991114345;224,055000;1765476991114344;0
1120;1765476991114346;-1239,810000;1765476991114345;199,680000;1765476991114346;0
1121;1765476991114347;-813,540000;1765476991114347;199,680000;1765476991114346;0
1122;1765476991114348;-813,540000;1765476991114347;428,220000;1765476991114348;0
1123;1765476991114349;-1377,090000;1765476991114349;428,220000;1765476991114348;0
1124;1765476991114350;-1377,090000;1765476991114349;284,895000;1765476991114350;0
1125;1765476991114351;-1064,505000;1765476991114351;284,895000;1765476991114350;0
1126;1765476991114352;-1064,505000;1765476991114351;640,380000;1765476991114352;0
1127;1765476991114353;-702,195000;1765476991114353;640,380000;1765476991114352;0
1128;1765476991114355;-702,195000;1765476991114353;541,905000;1765476991114355;0
1129;1765476991114356;-1298,115000;1765476991114356;541,905000;1765476991114355;0
1130;1765476991114357;-1298,115000;1765476991114356;170,430000;1765476991114357;0
1131;1765476991114358;-1665,105000;1765476991114358;170,430000;1765476991114357;0
1132;1765476991114359;-1665,105000;1765476991114358;126,360000;1765476991114359;0
1133;1765476991114360;-1511,835000;1765476991114360;126,360000;1765476991114359;0
1134;1765476991114361;-1511,835000;1765476991114360;-84,240000;1765476991114361;0
1135;1765476991114362;-751,920000;1765476991114362;-84,240000;1765476991114361;0
1136;1765476991114363;-751,920000;1765476991114362;228,735000;1765476991114363;0
1137;1765476991114364;-908,700000;1765476991114364;228,735000;1765476991114363;0
1138;1765476991114365;-908,700000;1765476991114364;263,445000;1765476991114365;0
1139;1765476991114366;-1698,255000;1765476991114366;263,445000;1765476991114365;0
1140;1765476991114367;-1698,255000;1765476991114366;-139,425000;1765476991114367;0
1141;1765476991114369;-1698,255000;1765476991114366;-377,130000;1765476991114369;0
1142;1765476991114370;-2067,585000;1765476991114370;-377,130000;1765476991114369;0
1143;1765476991114371;-2067,585000;1765476991114370;-393,900000;1765476991114371;0
1144;1765476991114372;-351,585000;1765476991114372;-393,900000;1765476991114371;0
1145;1765476991114373;-351,585000;1765476991114372;441,870000;1765476991114373;0
1146;1765476991114374;-191,490000;1765476991114374;441,870000;1765476991114373;0
1147;1765476991114375;-191,490000;1765476991114374;322,335000;1765476991114375;0
1148;1765476991114376;-1152,450000;1765476991114376;322,335000;1765476991114375;0
1149;1765476991114377;-1152,450000;1765476991114376;117,390000;1765476991114377;0
1150;1765476991114378;-1525,095000;1765476991114378;117,390000;1765476991114377;0
1151;1765476991114379;-1525,095000;1765476991114378;-95,745000;1765476991114379;0
1152;1765476991116528;-3917,355000;1765476991116528;-95,745000;1765476991114379;0
1153;1765476991116533;-3917,355000;1765476991116528;316,680000;1765476991116533;0
1154;1765476991116536;620,685000;1765476991116536;316,680000;1765476991116533;0
1155;1765476991116537;620,685000;1765476991116536;557,310000;1765476991116537;0
1156;1765476991116538;764,985000;1765476991116538;557,310000;1765476991116537;0
1157;1765476991116539;764,985000;1765476991116538;619,710000;1765476991116539;0
1158;1765476991116540;1081,860000;1765476991116540;619,710000;1765476991116539;0
1159;1765476991116541;1081,860000;1765476991116540;379,275000;1765476991116541;0
1160;1765476991116542;-406,185000;1765476991116542;379,275000;1765476991116541;0
1161;1765476991116543;-406,185000;1765476991116542;57,720000;1765476991116543;0
1162;1765476991116544;184,470000;1765476991116544;57,720000;1765476991116543;0
1163;1765476991116547;184,470000;1765476991116544;-41,730000;1765476991116547;0
1164;1765476991116548;-195,585000;1765476991116548;-41,730000;1765476991116547;0
1165;1765476991116549;-195,585000;1765476991116548;-143,130000;1765476991116549;0
1166;1765476991116550;1069,575000;1765476991116550;-143,130000;1765476991116549;0
1167;1765476991116551;1069,575000;1765476991116550;312,975000;1765476991116551;0
1168;1765476991116552;1069,575000;1765476991116550;369,720000;1765476991116552;0
1169;1765476991116554;926,055000;1765476991116554;369,720000;1765476991116552;0
1170;1765476991116555;926,055000;1765476991116554;222,495000;1765476991116555;0
1171;1765476991116556;830,310000;1765476991116556;222,495000;1765476991116555;0
1172;1765476991116557;830,310000;1765476991116556;193,050000;1765476991116557;0
1173;1765476991116558;1066,065000;1765476991116558;193,050000;1765476991116557;0
1174;1765476991116559;1066,065000;1765476991116558;238,485000;1765476991116559;0
1175;1765476991116560;1887,990000;1765476991116560;238,485000;1765476991116559;0
1176;1765476991116561;1887,990000;1765476991116560;584,415000;1765476991116561;0
1177;1765476991116562;1683,630000;1765476991116562;584,415000;1765476991116561;0
1178;1765476991116563;1683,630000;1765476991116562;512,655000;1765476991116563;0
1179;1765476991116564;699,855000;1765476991116564;-18,720000;1765476991116564;0
1180;1765476991116565;388,830000;1765476991116565;-18,720000;1765476991116564;0
1181;1765476991116566;388,830000;1765476991116565;-228,345000;1765476991116566;0
1182;1765476991116567;495,105000;1765476991116567;-228,345000;1765476991116566;0
1183;1765476991116568;495,105000;1765476991116567;-183,300000;1765476991116568;0
1184;1765476991116569;565,110000;1765476991116569;-183,300000;1765476991116568;0
1185;1765476991116570;565,110000;1765476991116569;46,215000;1765476991116570;0
1186;1765476991116571;1540,305000;1765476991116571;46,215000;1765476991116570;0
1187;1765476991116572;1540,305000;1765476991116571;185,445000;1765476991116572;0
1188;1765476991116573;1817,790000;1765476991116573;185,445000;1765476991116572;0
1189;1765476991116574;1817,790000;1765476991116573;111,345000;1765476991116574;0
1190;1765476991116576;1904,175000;1765476991116576;111,345000;1765476991116574;0
1191;1765476991116577;1904,175000;1765476991116576;220,350000;1765476991116577;0
1192;1765476991116578;930,150000;1765476991116578;220,350000;1765476991116577;0
1193;1765476991116579;930,150000;1765476991116578;56,550000;1765476991116579;0
1194;1765476991116580;2273,895000;1765476991116580;56,550000;1765476991116579;0
1195;1765476991116581;2273,895000;1765476991116580;425,100000;1765476991116581;0
1196;1765476991116582;2649,855000;1765476991116582;425,100000;1765476991116581;0
1197;1765476991116587;2649,855000;1765476991116582;722,085000;1765476991116587;0
1198;1765476991116588;2752,230000;1765476991116588;722,085000;1765476991116587;0
1199;1765476991116589;2752,230000;1765476991116588;604,110000;1765476991116589;0
1200;1765476991116590;2895,360000;1765476991116590;604,110000;1765476991116589;0
1201;1765476991116591;2895,360000;1765476991116590;552,240000;1765476991116591;0
1202;1765476991116592;1328,535000;1765476991116592;552,240000;1765476991116591;0
1203;1765476991116593;1328,535000;1765476991116592;26,910000;1765476991116593;0
1204;1765476991116594;1976,910000;1765476991116594;26,910000;1765476991116593;0
1205;1765476991116595;2188,290000;1765476991116595;319,410000;1765476991116595;0
1206;1765476991116596;2188,290000;1765476991116595;-40,755000;1765476991116596;0
1207;1765476991116597;2612,415000;1765476991116597;-40,755000;1765476991116596;0
1208;1765476991116598;2612,415000;1765476991116597;203,775000;1765476991116598;0
1209;1765476991116599;1664,520000;1765476991116599;203,775000;1765476991116598;0
1210;1765476991116600;1664,520000;1765476991116599;-65,910000;1765476991116600;0
1211;1765476991116601;2497,950000;1765476991116601;-65,910000;1765476991116600;0
1212;1765476991116602;2497,950000;1765476991116601;272,610000;1765476991116602;0
1213;1765476991116603;1886,040000;1765476991116603;272,610000;1765476991116602;0
1214;1765476991116604;1886,040000;1765476991116603;-299,130000;1765476991116604;0
1215;1765476991116605;3111,615000;1765476991116605;-299,130000;1765476991116604;0
1216;1765476991116606;3111,615000;1765476991116605;430,560000;1765476991116606;0
1217;1765476991116607;3080,220000;1765476991116607;430,560000;1765476991116606;0
1218;1765476991116608;3080,220000;1765476991116607;311,415000;1765476991116608;0
1219;1765476991116609;3547,830000;1765476991116609;693,615000;1765476991116609;0
1220;1765476991116610;3604,965000;1765476991116610;693,615000;1765476991116609;0
1221;1765476991116611;3604,965000;1765476991116610;470,340000;1765476991116611;0
1222;1765476991116612;4296,630000;1765476991116612;470,340000;1765476991116611;0
1223;1765476991116613;4296,630000;1765476991116612;488,475000;1765476991116613;0
1224;1765476991116614;3025,230000;1765476991116614;488,475000;1765476991116613;0
1225;1765476991116615;3025,230000;1765476991116614;160,095000;1765476991116615;0
1226;1765476991116616;3727,230000;1765476991116616;160,095000;1765476991116615;0
1227;1765476991116617;3834,870000;1765476991116617;302,055000;1765476991116617;0
1228;1765476991116618;3834,870000;1765476991116617;362,115000;1765476991116618;0
1229;1765476991174541;-3901,560000;1765476991174541;362,115000;1765476991116618;0
1230;1765476991174546;-3901,560000;1765476991174541;-41,730000;1765476991174546;0
1231;1765476991174548;3985,020000;1765476991174548;-41,730000;1765476991174546;0
1232;1765476991174550;3985,020000;1765476991174548;-116,805000;1765476991174550;0
1233;1765476991174551;4877,535000;1765476991174551;-116,805000;1765476991174550;0
1234;1765476991174552;4877,535000;1765476991174551;112,515000;1765476991174552;0
1235;1765476991174553;4482,075000;1765476991174553;112,515000;1765476991174552;0
1236;1765476991174554;4482,075000;1765476991174553;45,240000;1765476991174554;0
1237;1765476991174555;5218,395000;1765476991174555;45,240000;1765476991174554;0
1238;1765476991174556;5218,395000;1765476991174555;427,440000;1765476991174556;0
1239;1765476991174557;5382,390000;1765476991174557;427,440000;1765476991174556;0
1240;1765476991174558;5382,390000;1765476991174557;140,790000;1765476991174558;0
1241;1765476991174560;5319,600000;1765476991174560;140,790000;1765476991174558;0
1242;1765476991174561;5319,600000;1765476991174560;235,950000;1765476991174561;0
1243;1765476991174562;3471,585000;1765476991174562;235,950000;1765476991174561;0
1244;1765476991174563;3471,585000;1765476991174562;-824,850000;1765476991174563;0
1245;1765476991174564;4474,080000;1765476991174564;-824,850000;1765476991174563;0
1246;1765476991174565;4474,080000;1765476991174564;-541,905000;1765476991174565;0
1247;1765476991174566;3820,050000;1765476991174566;-541,905000;1765476991174565;0
1248;1765476991174567;3820,050000;1765476991174566;-577,395000;1765476991174567;0
1249;1765476991174568;4102,410000;1765476991174568;-577,395000;1765476991174567;0
1250;1765476991174569;4102,410000;1765476991174568;-738,465000;1765476991174569;0
1251;1765476991174570;4315,740000;1765476991174570;-738,465000;1765476991174569;0
1252;1765476991174571;4315,740000;1765476991174570;-302,445000;1765476991174571;0
1253;1765476991174572;5372,250000;1765476991174572;-302,445000;1765476991174571;0
1254;1765476991174573;5372,250000;1765476991174572;-10,335000;1765476991174573;0
1255;1765476991174574;4981,665000;1765476991174574;-10,335000;1765476991174573;0
1256;1765476991174575;4981,665000;1765476991174574;416,910000;1765476991174575;0
1257;1765476991174577;6039,150000;1765476991174577;416,910000;1765476991174575;0
1258;1765476991174578;6039,150000;1765476991174577;581,880000;1765476991174578;0
1259;1765476991174579;5183,295000;1765476991174579;581,880000;1765476991174578;0
1260;1765476991174580;5183,295000;1765476991174579;90,870000;1765476991174580;0
1261;1765476991174581;4609,410000;1765476991174581;90,870000;1765476991174580;0
1262;1765476991174582;4609,410000;1765476991174581;555,945000;1765476991174582;0
1263;1765476991174583;4246,710000;1765476991174583;555,945000;1765476991174582;0
1264;1765476991174584;4246,710000;1765476991174583;310,050000;1765476991174584;0
1265;1765476991174585;3477,825000;1765476991174585;310,050000;1765476991174584;0
1266;1765476991174586;3477,825000;1765476991174585;-231,465000;1765476991174586;0
1267;1765476991174587;3927,690000;1765476991174587;-191,880000;1765476991174587;0
1268;1765476991174589;5308,485000;1765476991174589;806,910000;1765476991174589;0
1269;1765476991174592;4788,810000;1765476991174592;806,910000;1765476991174589;0
1270;1765476991174593;4788,810000;1765476991174592;170,430000;1765476991174593;0
1271;1765476991174594;4507,230000;1765476991174594;170,430000;1765476991174593;0
1272;1765476991174595;4507,230000;1765476991174594;415,740000;1765476991174595;0
1273;1765476991174600;4521,270000;1765476991174600;415,740000;1765476991174595;0
1274;1765476991174601;4521,270000;1765476991174600;-5,265000;1765476991174601;0
1275;1765476991174602;5042,895000;1765476991174602;-5,265000;1765476991174601;0
1276;1765476991174603;5042,895000;1765476991174602;170,820000;1765476991174603;0
1277;1765476991174604;5045,430000;1765476991174604;170,820000;1765476991174603;0
1278;1765476991174605;5045,430000;1765476991174604;342,615000;1765476991174605;0
1279;1765476991174606;4356,300000;1765476991174606;342,615000;1765476991174605;0
1280;1765476991174607;4356,300000;1765476991174606;-104,130000;1765476991174607;0
1281;1765476991174608;5357,820000;1765476991174608;-104,130000;1765476991174607;0
1282;1765476991174609;4831,515000;1765476991174609;431,535000;1765476991174609;0
1283;1765476991174610;4831,515000;1765476991174609;280,215000;1765476991174610;0
1284;1765476991174611;5163,015000;1765476991174611;280,215000;1765476991174610;0
1285;1765476991174612;5163,015000;1765476991174611;153,270000;1765476991174612;0
1286;1765476991174613;5369,910000;1765476991174613;153,270000;1765476991174612;0
1287;1765476991174614;5369,910000;1765476991174613;390,975000;1765476991174614;0
1288;1765476991174615;5858,775000;1765476991174615;390,975000;1765476991174614;0
1289;1765476991174616;5807,295000;1765476991174616;840,255000;1765476991174616;0
1290;1765476991174617;5807,295000;1765476991174616;990,795000;1765476991174617;0
1291;1765476991174618;5002,725000;1765476991174618;990,795000;1765476991174617;0
1292;1765476991174619;5002,725000;1765476991174618;305,565000;1765476991174619;0
1293;1765476991174620;4765,020000;1765476991174620;305,565000;1765476991174619;0
1294;1765476991174621;4765,020000;1765476991174620;292,305000;1765476991174621;0
1295;1765476991174623;4060,485000;1765476991174623;292,305000;1765476991174621;0
1296;1765476991174624;4060,485000;1765476991174623;-64,935000;1765476991174624;0
1297;1765476991174625;5491,590000;1765476991174625;386,490000;1765476991174625;0
1298;1765476991174626;4457,505000;1765476991174626;386,490000;1765476991174625;0
1299;1765476991174627;4457,505000;1765476991174626;112,515000;1765476991174627;0
1300;1765476991174628;4524,195000;1765476991174628;112,515000;1765476991174627;0
1301;1765476991174629;4524,195000;1765476991174628;167,505000;1765476991174629;0
1302;1765476991234678;-3905,265000;1765476991234678;167,505000;1765476991174629;0
1303;1765476991234685;-3905,265000;1765476991234678;-312,195000;1765476991234685;0
1304;1765476991234688;3521,310000;1765476991234688;-312,195000;1765476991234685;0
1305;1765476991234689;3521,310000;1765476991234688;-145,665000;1765476991234689;0
1306;1765476991234691;4078,815000;1765476991234691;-145,665000;1765476991234689;0
1307;1765476991234692;4078,815000;1765476991234691;404,430000;1765476991234692;0
1308;1765476991234693;4417,920000;1765476991234693;404,430000;1765476991234692;0
1309;1765476991234695;4417,920000;1765476991234693;558,285000;1765476991234695;0
1310;1765476991234696;3885,375000;1765476991234696;558,285000;1765476991234695;0
1311;1765476991234698;3885,375000;1765476991234696;575,055000;1765476991234698;0
1312;1765476991234699;3205,215000;1765476991234699;575,055000;1765476991234698;0
1313;1765476991234700;3205,215000;1765476991234699;153,660000;1765476991234700;0
1314;1765476991234701;3298,230000;1765476991234701;153,660000;1765476991234700;0
1315;1765476991234702;3298,230000;1765476991234701;328,770000;1765476991234702;0
1316;1765476991234704;2916,030000;1765476991234704;328,770000;1765476991234702;0
1317;1765476991234705;2916,030000;1765476991234704;-63,570000;1765476991234705;0
1318;1765476991234706;3604,965000;1765476991234706;-63,570000;1765476991234705;0
1319;1765476991234707;3604,965000;1765476991234706;624,390000;1765476991234707;0
1320;1765476991234708;3557,775000;1765476991234708;624,390000;1765476991234707;0
1321;1765476991234709;3557,775000;1765476991234708;339,105000;1765476991234709;0
1322;1765476991234710;3575,520000;1765476991234710;339,105000;1765476991234709;0
1323;1765476991234711;3575,520000;1765476991234710;462,735000;1765476991234711;0
1324;1765476991234713;2144,415000;1765476991234713;462,735000;1765476991234711;0
1325;1765476991234714;2144,415000;1765476991234713;-141,765000;1765476991234714;0
1326;1765476991234715;1828,710000;1765476991234715;-141,765000;1765476991234714;0
1327;1765476991234716;1828,710000;1765476991234715;-148,005000;1765476991234716;0
1328;1765476991234717;2418,975000;1765476991234717;-148,005000;1765476991234716;0
1329;1765476991234718;2418,975000;1765476991234717;-103,545000;1765476991234718;0
1330;1765476991234719;2617,095000;1765476991234719;-103,545000;1765476991234718;0
1331;1765476991234727;2617,095000;1765476991234719;294,060000;1765476991234727;0
1332;1765476991234728;2320,110000;1765476991234728;294,060000;1765476991234727;0
1333;1765476991234729;2320,110000;1765476991234728;141,375000;1765476991234729;0
1334;1765476991234730;2008,305000;1765476991234730;141,375000;1765476991234729;0
1335;1765476991234732;2008,305000;1765476991234730;-42,705000;1765476991234732;0
1336;1765476991234733;2609,880000;1765476991234733;-42,705000;1765476991234732;0
1337;1765476991234734;2609,880000;1765476991234733;344,175000;1765476991234734;0
1338;1765476991234736;2609,880000;1765476991234733;744,705000;1765476991234736;0
1339;1765476991234738;3182,205000;1765476991234738;744,705000;1765476991234736;0
1340;1765476991234739;3182,205000;1765476991234738;653,250000;1765476991234739;0
1341;1765476991234740;702,780000;1765476991234740;653,250000;1765476991234739;0
1342;1765476991234741;702,780000;1765476991234740;-720,525000;1765476991234741;0
1343;1765476991234742;1044,030000;1765476991234742;-720,525000;1765476991234741;0
1344;1765476991234743;1044,030000;1765476991234742;-654,225000;1765476991234743;0
1345;1765476991234744;1490,775000;1765476991234744;-654,225000;1765476991234743;0
1346;1765476991234745;1490,775000;1765476991234744;-382,785000;1765476991234745;0
1347;1765476991234746;26,520000;1765476991234746;-382,785000;1765476991234745;0
1348;1765476991234747;26,520000;1765476991234746;640,965000;1765476991234747;0
1349;1765476991234748;-1250,730000;1765476991234748;640,965000;1765476991234747;0
1350;1765476991234749;-1250,730000;1765476991234748;144,300000;1765476991234749;0
1351;1765476991234750;-1348,815000;1765476991234750;144,300000;1765476991234749;0
1352;1765476991234751;-1348,815000;1765476991234750;-45,825000;1765476991234751;0
1353;1765476991234753;-1348,815000;1765476991234750;220,155000;1765476991234753;0
1354;1765476991234754;-804,180000;1765476991234754;220,155000;1765476991234753;0
1355;1765476991234755;-804,180000;1765476991234754;340,665000;1765476991234755;0
1356;1765476991234756;-984,555000;1765476991234756;340,665000;1765476991234755;0
1357;1765476991234758;-984,555000;1765476991234756;507,000000;1765476991234758;0
1358;1765476991234759;-898,755000;1765476991234759;507,000000;1765476991234758;0
1359;1765476991234760;-898,755000;1765476991234759;171,015000;1765476991234760;0
1360;1765476991234761;-940,290000;1765476991234761;171,015000;1765476991234760;0
1361;1765476991234762;-940,290000;1765476991234761;264,030000;1765476991234762;0
1362;1765476991234763;-1460,745000;1765476991234763;264,030000;1765476991234762;0
1363;1765476991234764;-1460,745000;1765476991234763;97,500000;1765476991234764;0
1364;1765476991234765;-1384,305000;1765476991234765;97,500000;1765476991234764;0
1365;1765476991234766;-1384,305000;1765476991234765;260,325000;1765476991234766;0
1366;1765476991234767;-1049,490000;1765476991234767;260,325000;1765476991234766;0
1367;1765476991234768;-1049,490000;1765476991234767;570,180000;1765476991234768;0
1368;1765476991234769;-1049,490000;1765476991234767;702,975000;1765476991234769;0
1369;1765476991234771;-595,725000;1765476991234771;702,975000;1765476991234769;0
1370;1765476991234772;-595,725000;1765476991234771;752,895000;1765476991234772;0
1371;1765476991234773;-2289,690000;1765476991234773;752,895000;1765476991234772;0
1372;1765476991234774;-2289,690000;1765476991234773;-166,335000;1765476991234774;0
1373;1765476991234775;-2324,595000;1765476991234775;-166,335000;1765476991234774;0
1374;1765476991234776;-1636,050000;1765476991234776;-7,995000;1765476991234776;0
1375;1765476991234778;-1636,050000;1765476991234776;296,595000;1765476991234778;0
1376;1765476991234779;-2298,270000;1765476991234779;296,595000;1765476991234778;0
1377;1765476991234781;-2298,270000;1765476991234779;145,470000;1765476991234781;0
1378;1765476991234782;-1518,660000;1765476991234782;145,470000;1765476991234781;0
1379;1765476991234784;-2497,755000;1765476991234784;497,250000;1765476991234784;0
1380;1765476991234785;-2497,755000;1765476991234784;-64,545000;1765476991234785;0
1381;1765476991293695;-2497,755000;1765476991234784;-3931,200000;1765476991293695;0
1382;1765476991293700;-2497,755000;1765476991234784;53,235000;1765476991293700;0
1383;1765476991293701;-1904,370000;1765476991293701;53,235000;1765476991293700;0
1384;1765476991293703;-1904,370000;1765476991293701;433,485000;1765476991293703;0
1385;1765476991293704;-2466,945000;1765476991293704;433,485000;1765476991293703;0
1386;1765476991293705;-2466,945000;1765476991293704;115,635000;1765476991293705;0
1387;1765476991293706;-1886,625000;1765476991293706;115,635000;1765476991293705;0
1388;1765476991293707;-1886,625000;1765476991293706;386,295000;1765476991293707;0
1389;1765476991293709;-3019,770000;1765476991293709;386,295000;1765476991293707;0
1390;1765476991293710;-3019,770000;1765476991293709;434,655000;1765476991293710;0
1391;1765476991293711;-2582,580000;1765476991293711;434,655000;1765476991293710;0
1392;1765476991293712;-2582,580000;1765476991293711;65,130000;1765476991293712;0
1393;1765476991293713;-2239,185000;1765476991293713;65,130000;1765476991293712;0
1394;1765476991293714;-2239,185000;1765476991293713;446,550000;1765476991293714;0
1395;1765476991293715;-3057,990000;1765476991293715;446,550000;1765476991293714;0
1396;1765476991293716;-3057,990000;1765476991293715;408,330000;1765476991293716;0
1397;1765476991293717;-2763,540000;1765476991293717;408,330000;1765476991293716;0
1398;1765476991293718;-2763,540000;1765476991293717;340,275000;1765476991293718;0
1399;1765476991293719;-2387,385000;1765476991293719;340,275000;1765476991293718;0
1400;1765476991293720;-2387,385000;1765476991293719;875,745000;1765476991293720;0
1401;1765476991293721;-3694,275000;1765476991293721;875,745000;1765476991293720;0
1402;1765476991293722;-2422,290000;1765476991293722;-51,870000;1765476991293722;0
1403;1765476991293723;-2422,290000;1765476991293722;284,700000;1765476991293723;0
1404;1765476991293724;-2778,750000;1765476991293724;284,700000;1765476991293723;0
1405;1765476991293725;-2778,750000;1765476991293724;25,740000;1765476991293725;0
1406;1765476991293727;-2573,025000;1765476991293727;25,740000;1765476991293725;0
1407;1765476991293729;-2573,025000;1765476991293727;395,070000;1765476991293729;0
1408;1765476991293730;-2963,610000;1765476991293730;395,070000;1765476991293729;0
1409;1765476991293731;-2963,610000;1765476991293730;413,595000;1765476991293731;0
1410;1765476991293732;-3596,385000;1765476991293732;-53,040000;1765476991293732;0
1411;1765476991293733;-2657,070000;1765476991293733;-53,040000;1765476991293732;0
1412;1765476991293734;-2657,070000;1765476991293733;225,030000;1765476991293734;0
1413;1765476991293735;-2905,890000;1765476991293735;225,030000;1765476991293734;0
1414;1765476991293736;-2905,890000;1765476991293735;80,535000;1765476991293736;0
1415;1765476991293737;-3122,535000;1765476991293737;80,535000;1765476991293736;0
1416;1765476991293738;-2554,500000;1765476991293738;233,025000;1765476991293738;0
1417;1765476991293739;-2554,500000;1765476991293738;171,405000;1765476991293739;0
1418;1765476991293740;-2554,500000;1765476991293738;-116,025000;1765476991293740;0
1419;1765476991293741;-2795,715000;1765476991293741;-116,025000;1765476991293740;0
1420;1765476991293742;-2795,715000;1765476991293741;50,310000;1765476991293742;0
1421;1765476991293743;-1591,200000;1765476991293743;50,310000;1765476991293742;0
1422;1765476991293744;-1591,200000;1765476991293743;350,805000;1765476991293744;0
1423;1765476991293745;-2446,275000;1765476991293745;350,805000;1765476991293744;0
1424;1765476991293746;-2446,275000;1765476991293745;244,335000;1765476991293746;0
1425;1765476991293747;-2653,950000;1765476991293747;407,745000;1765476991293747;0
1426;1765476991293748;-2197,455000;1765476991293748;407,745000;1765476991293747;0
1427;1765476991293749;-2197,455000;1765476991293748;39,390000;1765476991293749;0
1428;1765476991293750;-1913,145000;1765476991293750;39,390000;1765476991293749;0
1429;1765476991293751;-1913,145000;1765476991293750;172,575000;1765476991293751;0
1430;1765476991293752;-2296,710000;1765476991293752;436,215000;1765476991293752;0
1431;1765476991293754;-2934,555000;1765476991293754;436,215000;1765476991293752;0
1432;1765476991293755;-2934,555000;1765476991293754;-55,185000;1765476991293755;0
1433;1765476991293756;-2286,570000;1765476991293756;-55,185000;1765476991293755;0
1434;1765476991293757;-2286,570000;1765476991293756;390,975000;1765476991293757;0
1435;1765476991293758;-2577,315000;1765476991293758;390,975000;1765476991293757;0
1436;1765476991293759;-2023,515000;1765476991293759;-158,145000;1765476991293759;0
1437;1765476991293760;-2023,515000;1765476991293759;157,560000;1765476991293760;0
1438;1765476991293761;-2339,025000;1765476991293761;157,560000;1765476991293760;0
1439;1765476991293762;-2339,025000;1765476991293761;-382,785000;1765476991293762;0
1440;1765476991293763;-1799,850000;1765476991293763;-382,785000;1765476991293762;0
1441;1765476991293764;-1939,665000;1765476991293764;-241,605000;1765476991293764;0
1442;1765476991293765;-1939,665000;1765476991293764;-409,890000;1765476991293765;0
1443;1765476991293766;-2362,815000;1765476991293766;-409,890000;1765476991293765;0
1444;1765476991293767;-2362,815000;1765476991293766;-440,505000;1765476991293767;0
1445;1765476991293768;-1229,865000;1765476991293768;585,975000;1765476991293768;0
1446;1765476991293769;-763,620000;1765476991293769;585,975000;1765476991293768;0
1447;1765476991293770;-763,620000;1765476991293769;458,055000;1765476991293770;0
1448;1765476991293771;-2024,685000;1765476991293771;458,055000;1765476991293770;0
1449;1765476991293772;-2024,685000;1765476991293771;-48,360000;1765476991293772;0
1450;1765476991293773;-1296,945000;1765476991293773;-48,360000;1765476991293772;0
1451;1765476991293774;-1296,945000;1765476991293773;245,310000;1765476991293774;0
1452;1765476991297068;-3920,280000;1765476991297068;245,310000;1765476991293774;0
1453;1765476991297073;-3920,280000;1765476991297068;736,710000;1765476991297073;0
1454;1765476991297078;-1832,610000;1765476991297078;736,710000;1765476991297073;0
1455;1765476991297079;-1832,610000;1765476991297078;-122,850000;1765476991297079;0
1456;1765476991297080;-643,305000;1765476991297080;-122,850000;1765476991297079;0
1457;1765476991297081;-643,305000;1765476991297080;466,050000;1765476991297081;0
1458;1765476991297082;-1433,250000;1765476991297082;466,050000;1765476991297081;0
1459;1765476991297083;-1433,250000;1765476991297082;186,030000;1765476991297083;0
1460;1765476991297084;-614,835000;1765476991297084;186,030000;1765476991297083;0
1461;1765476991297086;-614,835000;1765476991297084;449,475000;1765476991297086;0
1462;1765476991297087;-796,770000;1765476991297087;449,475000;1765476991297086;0
1463;1765476991297088;-796,770000;1765476991297087;603,330000;1765476991297088;0
1464;1765476991297089;-778,050000;1765476991297089;603,330000;1765476991297088;0
1465;1765476991297090;-778,050000;1765476991297089;18,525000;1765476991297090;0
1466;1765476991297091;-713,895000;1765476991297091;18,525000;1765476991297090;0
1467;1765476991297093;-713,895000;1765476991297091;71,565000;1765476991297093;0
1468;1765476991297095;-726,180000;1765476991297095;71,565000;1765476991297093;0
1469;1765476991297096;-726,180000;1765476991297095;169,260000;1765476991297096;0
1470;1765476991297097;-1225,770000;1765476991297097;169,260000;1765476991297096;0
1471;1765476991297098;-1225,770000;1765476991297097;4,290000;1765476991297098;0
1472;1765476991297099;-345,540000;1765476991297099;4,290000;1765476991297098;0
1473;1765476991297100;-345,540000;1765476991297099;339,885000;1765476991297100;0
1474;1765476991297101;-213,330000;1765476991297101;339,885000;1765476991297100;0
1475;1765476991297102;-213,330000;1765476991297101;473,070000;1765476991297102;0
1476;1765476991297104;-1107,210000;1765476991297104;473,070000;1765476991297102;0
1477;1765476991297105;-1107,210000;1765476991297104;-29,640000;1765476991297105;0
1478;1765476991297106;-404,625000;1765476991297106;-29,640000;1765476991297105;0
1479;1765476991297107;-404,625000;1765476991297106;119,535000;1765476991297107;0
1480;1765476991297108;-940,290000;1765476991297108;119,535000;1765476991297107;0
1481;1765476991297109;-940,290000;1765476991297108;111,735000;1765476991297109;0
1482;1765476991297111;115,830000;1765476991297111;111,735000;1765476991297109;0
1483;1765476991297112;115,830000;1765476991297111;355,680000;1765476991297112;0
1484;1765476991297113;-640,575000;1765476991297113;355,680000;1765476991297112;0
1485;1765476991297114;-640,575000;1765476991297113;42,705000;1765476991297114;0
1486;1765476991297115;-148,200000;1765476991297115;42,705000;1765476991297114;0
1487;1765476991297116;-148,200000;1765476991297115;-46,020000;1765476991297116;0
1488;1765476991297117;216,645000;1765476991297117;-46,020000;1765476991297116;0
