Index;Time_us;Ch1_val_uV;Ch1_ts_us;Ch2_val_uV;Ch2_ts_us;StimState
0;1765795438385880;-1579,890000;1765795438385880;;;0
1;1765795438385885;-1579,890000;1765795438385880;-414,180000;1765795438385885;0
2;1765795438385941;-1527,240000;1765795438385941;-414,180000;1765795438385885;0
3;1765795438385942;-1527,240000;1765795438385941;-644,085000;1765795438385942;0
4;1765795438386691;-1557,465000;1765795438386691;-644,085000;1765795438385942;0
5;1765795438386692;-1557,465000;1765795438386691;-271,440000;1765795438386692;0
6;1765795438387043;-1468,740000;1765795438387043;-271,440000;1765795438386692;0
7;1765795438387044;-1468,740000;1765795438387043;-669,435000;1765795438387044;0
8;1765795438388153;-1664,520000;1765795438388153;-669,435000;1765795438387044;0
9;1765795438388155;-1664,520000;1765795438388153;-819,780000;1765795438388155;0
10;1765795438435360;-1352,130000;1765795438435360;-819,780000;1765795438388155;0
11;1765795438435362;-1352,130000;1765795438435360;-208,065000;1765795438435362;0
12;1765795438435533;-797,940000;1765795438435533;-208,065000;1765795438435362;0
13;1765795438435535;-797,940000;1765795438435533;190,710000;1765795438435535;0
14;1765795438435659;-945,945000;1765795438435659;190,710000;1765795438435535;0
15;1765795438435660;-945,945000;1765795438435659;126,945000;1765795438435660;0
16;1765795438436296;-1144,260000;1765795438436296;126,945000;1765795438435660;0
17;1765795438436298;-1144,260000;1765795438436296;98,670000;1765795438436298;0
18;1765795438436886;-930,735000;1765795438436886;98,670000;1765795438436298;0
19;1765795438436887;-930,735000;1765795438436886;251,550000;1765795438436887;0
20;1765795438438471;-930,735000;1765795438436886;53,820000;1765795438438471;0
21;1765795438438555;-1127,295000;1765795438438555;53,820000;1765795438438471;0
22;1765795438438557;-1127,295000;1765795438438555;214,695000;1765795438438557;0
23;1765795438438718;-1309,425000;1765795438438718;214,695000;1765795438438557;0
24;1765795438438719;-1309,425000;1765795438438718;57,135000;1765795438438719;0
25;1765795438439009;-1366,170000;1765795438439009;57,135000;1765795438438719;0
26;1765795438439011;-1366,170000;1765795438439009;167,505000;1765795438439011;0
27;1765795438443400;-1501,305000;1765795438443400;167,505000;1765795438439011;0
28;1765795438443404;-1501,305000;1765795438443400;138,255000;1765795438443404;0
29;1765795438443889;-1264,965000;1765795438443889;138,255000;1765795438443404;0
30;1765795438443892;-1264,965000;1765795438443889;262,470000;1765795438443892;0
31;1765795438445235;-1500,720000;1765795438445235;262,470000;1765795438443892;0
32;1765795438445237;-1500,720000;1765795438445235;165,750000;1765795438445237;0
33;1765795438445369;-1433,250000;1765795438445369;165,750000;1765795438445237;0
34;1765795438445370;-1433,250000;1765795438445369;169,065000;1765795438445370;0
35;1765795438445447;-1433,250000;1765795438445369;118,365000;1765795438445447;0
36;1765795438445491;-1395,225000;1765795438445491;118,365000;1765795438445447;0
37;1765795438445492;-1395,225000;1765795438445491;114,270000;1765795438445492;0
38;1765795438445609;-1224,990000;1765795438445609;114,270000;1765795438445492;0
39;1765795438445613;-1224,990000;1765795438445609;231,855000;1765795438445613;0
40;1765795438445755;-1224,990000;1765795438445609;-6189,105000;1765795438445755;0
41;1765795438445839;-1482,975000;1765795438445839;-6189,105000;1765795438445755;0
42;1765795438445841;-1482,975000;1765795438445839;154,830000;1765795438445841;0
43;1765795438445985;-1654,770000;1765795438445985;154,830000;1765795438445841;0
44;1765795438445986;-1654,770000;1765795438445985;-738,075000;1765795438445986;0
45;1765795438446047;-1280,955000;1765795438446047;-738,075000;1765795438445986;0
46;1765795438446048;-1280,955000;1765795438446047;-675,675000;1765795438446048;0
47;1765795438446134;-1119,300000;1765795438446134;-675,675000;1765795438446048;0
48;1765795438446137;-1119,300000;1765795438446134;-256,035000;1765795438446137;0
49;1765795438446309;-1119,300000;1765795438446134;-635,700000;1765795438446309;0
50;1765795438449512;-1119,300000;1765795438446134;-478,335000;1765795438449512;0
51;1765795438449553;-825,825000;1765795438449553;-478,335000;1765795438449512;0
52;1765795438449555;-825,825000;1765795438449553;-738,465000;1765795438449555;0
53;1765795438449764;-861,315000;1765795438449764;-738,465000;1765795438449555;0
54;1765795438449765;-861,315000;1765795438449764;-715,650000;1765795438449765;0
55;1765795438494794;-805,155000;1765795438494794;-715,650000;1765795438449765;0
56;1765795438494796;-805,155000;1765795438494794;-185,250000;1765795438494796;0
57;1765795438494966;-359,970000;1765795438494966;-185,250000;1765795438494796;0
58;1765795438494967;-359,970000;1765795438494966;118,365000;1765795438494967;0
59;1765795438495262;-183,105000;1765795438495262;118,365000;1765795438494967;0
60;1765795438495264;-183,105000;1765795438495262;266,175000;1765795438495264;0
61;1765795438496131;-181,155000;1765795438496131;266,175000;1765795438495264;0
62;1765795438496132;-181,155000;1765795438496131;251,160000;1765795438496132;0
63;1765795438496381;-247,845000;1765795438496381;251,160000;1765795438496132;0
64;1765795438496382;-247,845000;1765795438496381;216,255000;1765795438496382;0
65;1765795438496929;-350,415000;1765795438496929;216,255000;1765795438496382;0
66;1765795438496930;-350,415000;1765795438496929;158,145000;1765795438496930;0
67;1765795438497614;300,690000;1765795438497614;158,145000;1765795438496930;0
68;1765795438497616;300,690000;1765795438497614;457,470000;1765795438497616;0
69;1765795438497990;170,430000;1765795438497990;457,470000;1765795438497616;0
70;1765795438497991;170,430000;1765795438497990;304,005000;1765795438497991;0
71;1765795438498616;-166,530000;1765795438498616;304,005000;1765795438497991;0
72;1765795438498617;-166,530000;1765795438498616;390,000000;1765795438498617;0
73;1765795438499147;-6,630000;1765795438499147;390,000000;1765795438498617;0
74;1765795438499148;-6,630000;1765795438499147;359,775000;1765795438499148;0
75;1765795438500168;-154,050000;1765795438500168;359,775000;1765795438499148;0
76;1765795438500169;-154,050000;1765795438500168;232,830000;1765795438500169;0
77;1765795438500370;-351,780000;1765795438500370;232,830000;1765795438500169;0
78;1765795438500373;-351,780000;1765795438500370;124,215000;1765795438500373;0
79;1765795438500895;-155,220000;1765795438500895;124,215000;1765795438500373;0
80;1765795438500896;-155,220000;1765795438500895;326,430000;1765795438500896;0
81;1765795438501589;-193,440000;1765795438501589;326,430000;1765795438500896;0
82;1765795438501590;-193,440000;1765795438501589;183,105000;1765795438501590;0
83;1765795438502239;-439,140000;1765795438502239;183,105000;1765795438501590;0
84;1765795438502240;-439,140000;1765795438502239;105,690000;1765795438502240;0
85;1765795438502788;-478,335000;1765795438502788;105,690000;1765795438502240;0
86;1765795438502790;-478,335000;1765795438502788;116,805000;1765795438502790;0
87;1765795438503467;-266,760000;1765795438503467;116,805000;1765795438502790;0
88;1765795438503468;-266,760000;1765795438503467;245,310000;1765795438503468;0
89;1765795438503733;-388,635000;1765795438503733;245,310000;1765795438503468;0
90;1765795438503734;-388,635000;1765795438503733;28,860000;1765795438503734;0
91;1765795438504500;-257,595000;1765795438504500;28,860000;1765795438503734;0
92;1765795438504501;-257,595000;1765795438504500;142,545000;1765795438504501;0
93;1765795438505074;-866,580000;1765795438505074;142,545000;1765795438504501;0
94;1765795438505076;-866,580000;1765795438505074;-838,305000;1765795438505076;0
95;1765795438505504;-179,010000;1765795438505504;-838,305000;1765795438505076;0
96;1765795438505505;-179,010000;1765795438505504;-405,795000;1765795438505505;0
97;1765795438506376;-765,570000;1765795438506376;-405,795000;1765795438505505;0
98;1765795438506382;-765,570000;1765795438506376;-812,370000;1765795438506382;0
99;1765795438506665;-197,730000;1765795438506665;-812,370000;1765795438506382;0
100;1765795438506667;-197,730000;1765795438506665;-246,090000;1765795438506667;0
101;1765795438507209;-569,010000;1765795438507209;-246,090000;1765795438506667;0
102;1765795438507212;-569,010000;1765795438507209;-696,150000;1765795438507212;0
103;1765795438508016;-569,010000;1765795438507209;-390,195000;1765795438508016;0
104;1765795438554548;-326,430000;1765795438554548;-390,195000;1765795438508016;0
105;1765795438554551;-326,430000;1765795438554548;-360,360000;1765795438554551;0
106;1765795438555758;577,980000;1765795438555758;-360,360000;1765795438554551;0
107;1765795438555761;577,980000;1765795438555758;290,550000;1765795438555761;0
108;1765795438555921;405,600000;1765795438555921;290,550000;1765795438555761;0
109;1765795438555923;405,600000;1765795438555921;186,615000;1765795438555923;0
110;1765795438556043;649,935000;1765795438556043;186,615000;1765795438555923;0
111;1765795438556045;649,935000;1765795438556043;322,725000;1765795438556045;0
112;1765795438556594;585,585000;1765795438556594;322,725000;1765795438556045;0
113;1765795438556597;585,585000;1765795438556594;342,030000;1765795438556597;0
114;1765795438557249;463,710000;1765795438557249;342,030000;1765795438556597;0
115;1765795438557252;463,710000;1765795438557249;217,230000;1765795438557252;0
116;1765795438557814;333,450000;1765795438557814;217,230000;1765795438557252;0
117;1765795438557817;333,450000;1765795438557814;253,890000;1765795438557817;0
118;1765795438558241;385,905000;1765795438558241;253,890000;1765795438557817;0
119;1765795438558243;385,905000;1765795438558241;133,185000;1765795438558243;0
120;1765795438558831;366,015000;1765795438558831;133,185000;1765795438558243;0
121;1765795438558832;366,015000;1765795438558831;67,665000;1765795438558832;0
122;1765795438559342;542,295000;1765795438559342;67,665000;1765795438558832;0
123;1765795438559344;542,295000;1765795438559342;266,370000;1765795438559344;0
124;1765795438559933;618,150000;1765795438559933;266,370000;1765795438559344;0
125;1765795438559935;618,150000;1765795438559933;232,635000;1765795438559935;0
126;1765795438560638;457,665000;1765795438560638;232,635000;1765795438559935;0
127;1765795438560640;457,665000;1765795438560638;190,710000;1765795438560640;0
128;1765795438560768;406,575000;1765795438560768;190,710000;1765795438560640;0
129;1765795438560769;406,575000;1765795438560768;185,055000;1765795438560769;0
130;1765795438561660;273,000000;1765795438561660;185,055000;1765795438560769;0
131;1765795438561661;273,000000;1765795438561660;60,255000;1765795438561661;0
132;1765795438562415;466,050000;1765795438562415;60,255000;1765795438561661;0
133;1765795438562416;466,050000;1765795438562415;232,830000;1765795438562416;0
134;1765795438562668;571,935000;1765795438562668;232,830000;1765795438562416;0
135;1765795438562670;571,935000;1765795438562668;213,330000;1765795438562670;0
136;1765795438563363;565,500000;1765795438563363;213,330000;1765795438562670;0
137;1765795438563364;565,500000;1765795438563363;257,985000;1765795438563364;0
138;1765795438563827;682,110000;1765795438563827;257,985000;1765795438563364;0
139;1765795438563829;682,110000;1765795438563827;348,855000;1765795438563829;0
140;1765795438564448;50,310000;1765795438564448;348,855000;1765795438563829;0
141;1765795438564450;50,310000;1765795438564448;-690,105000;1765795438564450;0
142;1765795438564886;-86,580000;1765795438564886;-690,105000;1765795438564450;0
143;1765795438564888;-86,580000;1765795438564886;-803,010000;1765795438564888;0
144;1765795438565532;-375,570000;1765795438565532;-803,010000;1765795438564888;0
145;1765795438565533;-375,570000;1765795438565532;-528,255000;1765795438565533;0
146;1765795438565882;-83,265000;1765795438565882;-528,255000;1765795438565533;0
147;1765795438565883;-83,265000;1765795438565882;-628,095000;1765795438565883;0
148;1765795438566758;-23,205000;1765795438566758;-628,095000;1765795438565883;0
149;1765795438566760;-23,205000;1765795438566758;-773,760000;1765795438566760;0
150;1765795438567260;112,320000;1765795438567260;-773,760000;1765795438566760;0
151;1765795438567262;112,320000;1765795438567260;-716,625000;1765795438567262;0
152;1765795438567697;-19,695000;1765795438567697;-716,625000;1765795438567262;0
153;1765795438567699;-19,695000;1765795438567697;-528,060000;1765795438567699;0
154;1765795438568413;426,270000;1765795438568413;-528,060000;1765795438567699;0
155;1765795438568414;426,270000;1765795438568413;-432,900000;1765795438568414;0
156;1765795438614394;306,735000;1765795438614394;-432,900000;1765795438568414;0
157;1765795438614396;306,735000;1765795438614394;-351,195000;1765795438614396;0
158;1765795438614770;1087,905000;1765795438614770;-351,195000;1765795438614396;0
159;1765795438614772;1087,905000;1765795438614770;213,135000;1765795438614772;0
160;1765795438615842;1013,415000;1765795438615842;213,135000;1765795438614772;0
161;1765795438615844;1013,415000;1765795438615842;125,775000;1765795438615844;0
162;1765795438616507;1136,460000;1765795438616507;125,775000;1765795438615844;0
163;1765795438616508;1136,460000;1765795438616507;128,310000;1765795438616508;0
164;1765795438616914;1176,240000;1765795438616914;128,310000;1765795438616508;0
165;1765795438616915;1176,240000;1765795438616914;91,455000;1765795438616915;0
166;1765795438617770;1298,700000;1765795438617770;91,455000;1765795438616915;0
167;1765795438617771;1298,700000;1765795438617770;299,910000;1765795438617771;0
168;1765795438618062;1442,220000;1765795438618062;299,910000;1765795438617771;0
169;1765795438618063;1442,220000;1765795438618062;183,495000;1765795438618063;0
170;1765795438618817;1434,030000;1765795438618817;183,495000;1765795438618063;0
171;1765795438618818;1434,030000;1765795438618817;245,310000;1765795438618818;0
172;1765795438619181;1572,870000;1765795438619181;245,310000;1765795438618818;0
173;1765795438619183;1572,870000;1765795438619181;281,190000;1765795438619183;0
174;1765795438619848;1654,380000;1765795438619848;281,190000;1765795438619183;0
175;1765795438619849;1654,380000;1765795438619848;288,795000;1765795438619849;0
176;1765795438620346;1493,310000;1765795438620346;288,795000;1765795438619849;0
177;1765795438620347;1493,310000;1765795438620346;112,515000;1765795438620347;0
178;1765795438620873;1648,140000;1765795438620873;112,515000;1765795438620347;0
179;1765795438620874;1648,140000;1765795438620873;232,440000;1765795438620874;0
180;1765795438621623;1648,140000;1765795438620873;192,270000;1765795438621623;0
181;1765795438622838;1697,280000;1765795438622838;192,270000;1765795438621623;0
182;1765795438622843;1697,280000;1765795438622838;174,330000;1765795438622843;0
183;1765795438623020;1580,670000;1765795438623020;174,330000;1765795438622843;0
184;1765795438623021;1580,670000;1765795438623020;141,375000;1765795438623021;0
185;1765795438623402;1580,670000;1765795438623020;70,200000;1765795438623402;0
186;1765795438624092;1797,900000;1765795438624092;70,200000;1765795438623402;0
187;1765795438624095;1797,900000;1765795438624092;90,870000;1765795438624095;0
188;1765795438624444;1938,690000;1765795438624444;90,870000;1765795438624095;0
189;1765795438624446;1938,690000;1765795438624444;-452,985000;1765795438624446;0
190;1765795438625143;1528,800000;1765795438625143;-452,985000;1765795438624446;0
191;1765795438625145;1528,800000;1765795438625143;-507,585000;1765795438625145;0
192;1765795438626076;1897,155000;1765795438626076;-507,585000;1765795438625145;0
193;1765795438626081;1897,155000;1765795438626076;-591,045000;1765795438626081;0
194;1765795438627023;1947,660000;1765795438627023;-591,045000;1765795438626081;0
195;1765795438627026;1947,660000;1765795438627023;-800,475000;1765795438627026;0
196;1765795438627355;2126,670000;1765795438627355;-800,475000;1765795438627026;0
197;1765795438627358;2126,670000;1765795438627355;-228,930000;1765795438627358;0
198;1765795438674981;1963,650000;1765795438674981;-228,930000;1765795438627358;0
199;1765795438674986;1963,650000;1765795438674981;-804,570000;1765795438674986;0
200;1765795438675317;2189,070000;1765795438675317;-804,570000;1765795438674986;0
201;1765795438675320;2189,070000;1765795438675317;-221,520000;1765795438675320;0
202;1765795438675475;2189,070000;1765795438675317;301,080000;1765795438675475;0
203;1765795438676098;2969,655000;1765795438676098;301,080000;1765795438675475;0
204;1765795438676100;2969,655000;1765795438676098;219,960000;1765795438676100;0
205;1765795438676550;3269,565000;1765795438676550;219,960000;1765795438676100;0
206;1765795438676552;3269,565000;1765795438676550;370,110000;1765795438676552;0
207;1765795438677097;3161,535000;1765795438677097;370,110000;1765795438676552;0
208;1765795438677099;3161,535000;1765795438677097;364,455000;1765795438677099;0
209;1765795438677683;3253,770000;1765795438677683;364,455000;1765795438677099;0
210;1765795438677685;3253,770000;1765795438677683;254,085000;1765795438677685;0
211;1765795438678458;3220,230000;1765795438678458;254,085000;1765795438677685;0
212;1765795438678462;3220,230000;1765795438678458;325,455000;1765795438678462;0
213;1765795438678852;3272,100000;1765795438678852;325,455000;1765795438678462;0
214;1765795438678854;3272,100000;1765795438678852;341,445000;1765795438678854;0
215;1765795438679325;3156,465000;1765795438679325;341,445000;1765795438678854;0
216;1765795438679326;3156,465000;1765795438679325;181,545000;1765795438679326;0
217;1765795438680008;3622,710000;1765795438680008;181,545000;1765795438679326;0
218;1765795438680014;3622,710000;1765795438680008;230,880000;1765795438680014;0
219;1765795438680476;2931,630000;1765795438680476;230,880000;1765795438680014;0
220;1765795438680478;2931,630000;1765795438680476;304,590000;1765795438680478;0
221;1765795438681197;2797,665000;1765795438681197;304,590000;1765795438680478;0
222;1765795438681199;2797,665000;1765795438681197;65,715000;1765795438681199;0
223;1765795438681719;2797,665000;1765795438681197;107,835000;1765795438681719;0
224;1765795438682281;2741,310000;1765795438682281;107,835000;1765795438681719;0
225;1765795438682283;2741,310000;1765795438682281;109,395000;1765795438682283;0
226;1765795438682811;3056,430000;1765795438682811;109,395000;1765795438682283;0
227;1765795438682813;3056,430000;1765795438682811;116,415000;1765795438682813;0
228;1765795438683442;3257,670000;1765795438683442;116,415000;1765795438682813;0
229;1765795438683443;3257,670000;1765795438683442;192,465000;1765795438683443;0
230;1765795438684030;3018,990000;1765795438684030;192,465000;1765795438683443;0
231;1765795438684031;3018,990000;1765795438684030;82,680000;1765795438684031;0
232;1765795438684689;3018,990000;1765795438684030;-358,020000;1765795438684689;0
233;1765795438685160;-572,130000;1765795438685160;-358,020000;1765795438684689;0
234;1765795438685161;-572,130000;1765795438685160;-749,970000;1765795438685161;0
235;1765795438685665;-256,230000;1765795438685665;-749,970000;1765795438685161;0
236;1765795438685666;-256,230000;1765795438685665;-762,255000;1765795438685666;0
237;1765795438686214;-551,265000;1765795438686214;-762,255000;1765795438685666;0
238;1765795438686215;-551,265000;1765795438686214;-729,105000;1765795438686215;0
239;1765795438686657;-4,485000;1765795438686657;-729,105000;1765795438686215;0
240;1765795438686658;-4,485000;1765795438686657;-540,735000;1765795438686658;0
241;1765795438687360;-382,785000;1765795438687360;-540,735000;1765795438686658;0
242;1765795438687361;-382,785000;1765795438687360;-653,055000;1765795438687361;0
243;1765795438734551;788,190000;1765795438734551;-653,055000;1765795438687361;0
244;1765795438734554;788,190000;1765795438734551;-239,265000;1765795438734554;0
245;1765795438734938;728,130000;1765795438734938;-239,265000;1765795438734554;0
246;1765795438734939;728,130000;1765795438734938;-58,305000;1765795438734939;0
247;1765795438735278;728,130000;1765795438734938;218,010000;1765795438735278;0
248;1765795438735802;1025,310000;1765795438735802;218,010000;1765795438735278;0
249;1765795438735803;1025,310000;1765795438735802;235,950000;1765795438735803;0
250;1765795438736491;1122,030000;1765795438736491;235,950000;1765795438735803;0
251;1765795438736492;1122,030000;1765795438736491;202,215000;1765795438736492;0
252;1765795438736932;1205,100000;1765795438736932;202,215000;1765795438736492;0
253;1765795438736933;1205,100000;1765795438736932;265,785000;1765795438736933;0
254;1765795438737515;1186,380000;1765795438737515;265,785000;1765795438736933;0
255;1765795438737516;1186,380000;1765795438737515;109,005000;1765795438737516;0
256;1765795438737996;1181,310000;1765795438737996;109,005000;1765795438737516;0
257;1765795438737998;1181,310000;1765795438737996;271,245000;1765795438737998;0
258;1765795438738764;1096,485000;1765795438738764;271,245000;1765795438737998;0
259;1765795438738766;1096,485000;1765795438738764;109,005000;1765795438738766;0
260;1765795438740143;1445,925000;1765795438740143;109,005000;1765795438738766;0
261;1765795438740147;1445,925000;1765795438740143;181,350000;1765795438740147;0
262;1765795438740391;1326,000000;1765795438740391;181,350000;1765795438740147;0
263;1765795438740392;1326,000000;1765795438740391;125,580000;1765795438740392;0
264;1765795438740613;1410,630000;1765795438740613;125,580000;1765795438740392;0
265;1765795438740615;1410,630000;1765795438740613;191,490000;1765795438740615;0
266;1765795438743841;1351,935000;1765795438743841;191,490000;1765795438740615;0
267;1765795438743842;1351,935000;1765795438743841;30,225000;1765795438743842;0
268;1765795438747190;1565,655000;1765795438747190;30,225000;1765795438743842;0
269;1765795438747193;1565,655000;1765795438747190;126,750000;1765795438747193;0
270;1765795438748011;1626,300000;1765795438748011;126,750000;1765795438747193;0
271;1765795438748013;1626,300000;1765795438748011;116,220000;1765795438748013;0
272;1765795438748643;1770,015000;1765795438748643;116,220000;1765795438748013;0
273;1765795438748645;1770,015000;1765795438748643;197,925000;1765795438748645;0
274;1765795438748781;1639,170000;1765795438748781;197,925000;1765795438748645;0
275;1765795438748783;1639,170000;1765795438748781;94,575000;1765795438748783;0
276;1765795438749216;1663,935000;1765795438749216;94,575000;1765795438748783;0
277;1765795438749217;1663,935000;1765795438749216;89,310000;1765795438749217;0
278;1765795438749812;1223,430000;1765795438749812;89,310000;1765795438749217;0
279;1765795438749814;1223,430000;1765795438749812;-697,320000;1765795438749814;0
280;1765795438750357;994,110000;1765795438750357;-697,320000;1765795438749814;0
281;1765795438750359;994,110000;1765795438750357;-488,085000;1765795438750359;0
282;1765795438750911;1660,035000;1765795438750911;-496,860000;1765795438750911;0
283;1765795438752517;1139,775000;1765795438752517;-496,860000;1765795438750911;0
284;1765795438752518;1139,775000;1765795438752517;-731,835000;1765795438752518;0
285;1765795438752599;1284,855000;1765795438752599;-457,665000;1765795438752599;0
286;1765795438753987;1292,070000;1765795438753987;-457,665000;1765795438752599;0
287;1765795438753988;1292,070000;1765795438753987;-625,170000;1765795438753988;0
288;1765795438754112;1520,805000;1765795438754112;-625,170000;1765795438753988;0
289;1765795438754113;1520,805000;1765795438754112;-312,975000;1765795438754113;0
290;1765795438794905;1560,390000;1765795438794905;-312,975000;1765795438754113;0
291;1765795438794911;1560,390000;1765795438794905;-595,725000;1765795438794911;0
292;1765795438795104;1824,030000;1765795438795104;-595,725000;1765795438794911;0
293;1765795438795106;1824,030000;1765795438795104;73,905000;1765795438795106;0
294;1765795438795512;1868,685000;1765795438795512;73,905000;1765795438795106;0
295;1765795438795514;1868,685000;1765795438795512;278,460000;1765795438795514;0
296;1765795438795919;1649,310000;1765795438795919;278,460000;1765795438795514;0
297;1765795438795921;1649,310000;1765795438795919;13,455000;1765795438795921;0
298;1765795438796547;1817,790000;1765795438796547;13,455000;1765795438795921;0
299;1765795438796549;1817,790000;1765795438796547;112,515000;1765795438796549;0
300;1765795438796973;2007,135000;1765795438796973;112,515000;1765795438796549;0
301;1765795438796975;2007,135000;1765795438796973;233,025000;1765795438796975;0
302;1765795438797609;2164,305000;1765795438797609;233,025000;1765795438796975;0
303;1765795438797610;2164,305000;1765795438797609;339,495000;1765795438797610;0
304;1765795438798132;1618,305000;1765795438798132;339,495000;1765795438797610;0
305;1765795438798134;1618,305000;1765795438798132;-73,125000;1765795438798134;0
306;1765795438798738;1944,735000;1765795438798738;-73,125000;1765795438798134;0
307;1765795438798740;1944,735000;1765795438798738;250,380000;1765795438798740;0
308;1765795438799250;1930,110000;1765795438799250;250,380000;1765795438798740;0
309;1765795438799251;1930,110000;1765795438799250;233,610000;1765795438799251;0
310;1765795438799741;1964,430000;1765795438799741;233,610000;1765795438799251;0
311;1765795438799742;1964,430000;1765795438799741;250,380000;1765795438799742;0
312;1765795438800421;1901,250000;1765795438800421;250,380000;1765795438799742;0
313;1765795438800422;1901,250000;1765795438800421;290,160000;1765795438800422;0
314;1765795438801013;1555,710000;1765795438801013;290,160000;1765795438800422;0
315;1765795438801015;1555,710000;1765795438801013;103,935000;1765795438801015;0
316;1765795438801455;1555,710000;1765795438801013;33,150000;1765795438801455;0
317;1765795438802398;1585,935000;1765795438802398;33,150000;1765795438801455;0
318;1765795438802399;1585,935000;1765795438802398;59,670000;1765795438802399;0
319;1765795438802681;1591,395000;1765795438802681;59,670000;1765795438802399;0
320;1765795438802682;1591,395000;1765795438802681;56,355000;1765795438802682;0
321;1765795438803698;1660,815000;1765795438803698;56,355000;1765795438802682;0
322;1765795438803699;1660,815000;1765795438803698;174,135000;1765795438803699;0
323;1765795438804407;1121,250000;1765795438804407;174,135000;1765795438803699;0
324;1765795438804409;1121,250000;1765795438804407;133,575000;1765795438804409;0
325;1765795438804945;342,225000;1765795438804945;133,575000;1765795438804409;0
326;1765795438804947;342,225000;1765795438804945;-763,425000;1765795438804947;0
327;1765795438805827;228,735000;1765795438805827;-763,425000;1765795438804947;0
328;1765795438805829;228,735000;1765795438805827;-734,175000;1765795438805829;0
329;1765795438806083;-78,195000;1765795438806083;-734,175000;1765795438805829;0
330;1765795438806086;-78,195000;1765795438806083;-476,970000;1765795438806086;0
331;1765795438806732;-16,575000;1765795438806732;-476,970000;1765795438806086;0
332;1765795438806734;-16,575000;1765795438806732;-598,065000;1765795438806734;0
333;1765795438807267;-208,065000;1765795438807267;-598,065000;1765795438806734;0
334;1765795438807269;-208,065000;1765795438807267;-412,425000;1765795438807269;0
335;1765795438807938;199,680000;1765795438807938;-412,425000;1765795438807269;0
336;1765795438807941;199,680000;1765795438807938;-628,290000;1765795438807941;0
337;1765795438856419;-58,305000;1765795438856419;-628,290000;1765795438807941;0
338;1765795438856422;-58,305000;1765795438856419;-143,130000;1765795438856422;0
339;1765795438856727;689,715000;1765795438856727;-143,130000;1765795438856422;0
340;1765795438856728;689,715000;1765795438856727;350,415000;1765795438856728;0
341;1765795438858028;653,055000;1765795438858028;350,415000;1765795438856728;0
342;1765795438858031;653,055000;1765795438858028;335,985000;1765795438858031;0
343;1765795438858158;409,695000;1765795438858158;335,985000;1765795438858031;0
344;1765795438858161;409,695000;1765795438858158;317,070000;1765795438858161;0
345;1765795438858227;515,970000;1765795438858227;317,070000;1765795438858161;0
346;1765795438858228;515,970000;1765795438858227;403,455000;1765795438858228;0
347;1765795438858580;422,955000;1765795438858580;403,455000;1765795438858228;0
348;1765795438858581;422,955000;1765795438858580;392,535000;1765795438858581;0
349;1765795438858658;387,855000;1765795438858658;392,535000;1765795438858581;0
350;1765795438858660;387,855000;1765795438858658;376,350000;1765795438858660;0
351;1765795438858805;58,305000;1765795438858805;376,350000;1765795438858660;0
352;1765795438858806;58,305000;1765795438858805;341,250000;1765795438858806;0
353;1765795438858884;285,870000;1765795438858884;341,250000;1765795438858806;0
354;1765795438858886;285,870000;1765795438858884;312,390000;1765795438858886;0
355;1765795438860030;158,145000;1765795438860030;312,390000;1765795438858886;0
356;1765795438860033;158,145000;1765795438860030;286,065000;1765795438860033;0
357;1765795438860132;256,620000;1765795438860132;286,065000;1765795438860033;0
358;1765795438860133;256,620000;1765795438860132;441,090000;1765795438860133;0
359;1765795438860862;-177,450000;1765795438860862;441,090000;1765795438860133;0
360;1765795438860863;-177,450000;1765795438860862;197,925000;1765795438860863;0
361;1765795438861352;-244,335000;1765795438861352;197,925000;1765795438860863;0
362;1765795438861353;-244,335000;1765795438861352;78,000000;1765795438861353;0
363;1765795438861969;-447,330000;1765795438861969;78,000000;1765795438861353;0
364;1765795438861971;-447,330000;1765795438861969;78,975000;1765795438861971;0
365;1765795438862623;-458,250000;1765795438862623;78,975000;1765795438861971;0
366;1765795438862625;-458,250000;1765795438862623;147,615000;1765795438862625;0
367;1765795438865799;-246,480000;1765795438865799;147,615000;1765795438862625;0
368;1765795438865801;-246,480000;1765795438865799;277,875000;1765795438865801;0
369;1765795438865860;-510,900000;1765795438865860;277,875000;1765795438865801;0
370;1765795438865861;-510,900000;1765795438865860;81,315000;1765795438865861;0
371;1765795438865990;-421,590000;1765795438865990;183,495000;1765795438865990;0
372;1765795438866186;-1588,470000;1765795438866186;183,495000;1765795438865990;0
373;1765795438866188;-1588,470000;1765795438866186;-688,545000;1765795438866188;0
374;1765795438866278;-2147,730000;1765795438866278;-688,545000;1765795438866188;0
375;1765795438866279;-2147,730000;1765795438866278;-682,110000;1765795438866279;0
376;1765795438866325;-1670,565000;1765795438866325;-682,110000;1765795438866279;0
377;1765795438866326;-1670,565000;1765795438866325;-248,235000;1765795438866326;0
378;1765795438866423;-1994,850000;1765795438866423;-248,235000;1765795438866326;0
379;1765795438866425;-1994,850000;1765795438866423;-337,935000;1765795438866425;0
380;1765795438866513;-1994,850000;1765795438866423;-358,020000;1765795438866513;0
381;1765795438868648;-1730,625000;1765795438868648;-358,020000;1765795438866513;0
382;1765795438868650;-1730,625000;1765795438868648;-632,385000;1765795438868650;0
383;1765795438869130;-2232,360000;1765795438869130;-632,385000;1765795438868650;0
384;1765795438869131;-2232,360000;1765795438869130;-626,145000;1765795438869131;0
385;1765795438914717;-1913,730000;1765795438914717;-626,145000;1765795438869131;0
386;1765795438914719;-1913,730000;1765795438914717;-331,110000;1765795438914719;0
387;1765795438914873;-1664,325000;1765795438914873;-331,110000;1765795438914719;0
388;1765795438914874;-1664,325000;1765795438914873;57,135000;1765795438914874;0
389;1765795438915291;-1473,225000;1765795438915291;57,135000;1765795438914874;0
390;1765795438915292;-1473,225000;1765795438915291;320,385000;1765795438915292;0
391;1765795438916197;-1792,830000;1765795438916197;320,385000;1765795438915292;0
392;1765795438916199;-1792,830000;1765795438916197;153,855000;1765795438916199;0
393;1765795438916396;-1803,750000;1765795438916396;153,855000;1765795438916199;0
394;1765795438916398;-1803,750000;1765795438916396;110,370000;1765795438916398;0
395;1765795438916933;-1693,770000;1765795438916933;110,370000;1765795438916398;0
396;1765795438916934;-1693,770000;1765795438916933;185,055000;1765795438916934;0
397;1765795438917619;-1649,115000;1765795438917619;185,055000;1765795438916934;0
398;1765795438917620;-1649,115000;1765795438917619;301,470000;1765795438917620;0
399;1765795438918107;-1686,555000;1765795438918107;301,470000;1765795438917620;0
400;1765795438918108;-1686,555000;1765795438918107;257,400000;1765795438918108;0
401;1765795438918691;-2214,810000;1765795438918691;257,400000;1765795438918108;0
402;1765795438918693;-2214,810000;1765795438918691;66,495000;1765795438918693;0
403;1765795438919228;-2005,380000;1765795438919228;66,495000;1765795438918693;0
404;1765795438919229;-2005,380000;1765795438919228;227,760000;1765795438919229;0
405;1765795438919889;-2092,740000;1765795438919889;227,760000;1765795438919229;0
406;1765795438919890;-2092,740000;1765795438919889;282,555000;1765795438919890;0
407;1765795438920238;-2439,450000;1765795438920238;282,555000;1765795438919890;0
408;1765795438920239;-2439,450000;1765795438920238;70,395000;1765795438920239;0
409;1765795438920903;-2399,670000;1765795438920903;70,395000;1765795438920239;0
410;1765795438920904;-2399,670000;1765795438920903;116,805000;1765795438920904;0
411;1765795438921569;-2161,770000;1765795438921569;116,805000;1765795438920904;0
412;1765795438921572;-2161,770000;1765795438921569;292,110000;1765795438921572;0
413;1765795438922737;-2399,670000;1765795438922737;292,110000;1765795438921572;0
414;1765795438922740;-2399,670000;1765795438922737;220,350000;1765795438922740;0
415;1765795438922920;-2741,310000;1765795438922920;220,350000;1765795438922740;0
416;1765795438922923;-2741,310000;1765795438922920;-46,605000;1765795438922923;0
417;1765795438923299;-2464,605000;1765795438923299;-46,605000;1765795438922923;0
418;1765795438923301;-2464,605000;1765795438923299;235,950000;1765795438923301;0
419;1765795438923908;-2464,605000;1765795438923299;48,750000;1765795438923908;0
420;1765795438924448;-3309,150000;1765795438924448;48,750000;1765795438923908;0
421;1765795438924450;-3309,150000;1765795438924448;-501,150000;1765795438924450;0
422;1765795438924873;-2670,720000;1765795438924873;-501,150000;1765795438924450;0
423;1765795438924876;-2670,720000;1765795438924873;-176,670000;1765795438924876;0
424;1765795438925512;-2716,545000;1765795438925512;-176,670000;1765795438924876;0
425;1765795438925513;-2716,545000;1765795438925512;-834,210000;1765795438925513;0
426;1765795438925981;-2716,545000;1765795438925512;-701,025000;1765795438925981;0
427;1765795438927083;-2207,010000;1765795438927083;-701,025000;1765795438925981;0
428;1765795438927085;-2207,010000;1765795438927083;-587,925000;1765795438927085;0
429;1765795438974913;-2502,240000;1765795438974913;-587,925000;1765795438927085;0
430;1765795438974917;-2502,240000;1765795438974913;-322,725000;1765795438974917;0
431;1765795438975096;-2047,890000;1765795438975096;-322,725000;1765795438974917;0
432;1765795438975099;-2047,890000;1765795438975096;-694,785000;1765795438975099;0
433;1765795438975315;-2070,900000;1765795438975315;-694,785000;1765795438975099;0
434;1765795438975317;-2070,900000;1765795438975315;-292,305000;1765795438975317;0
435;1765795438975835;-1411,215000;1765795438975835;-292,305000;1765795438975317;0
436;1765795438975837;-1411,215000;1765795438975835;165,360000;1765795438975837;0
437;1765795438976373;-1563,705000;1765795438976373;165,360000;1765795438975837;0
438;1765795438976374;-1563,705000;1765795438976373;195,390000;1765795438976374;0
439;1765795438977046;-1531,140000;1765795438977046;195,390000;1765795438976374;0
440;1765795438977048;-1531,140000;1765795438977046;192,270000;1765795438977048;0
441;1765795438977622;-1700,010000;1765795438977622;192,270000;1765795438977048;0
442;1765795438977624;-1700,010000;1765795438977622;215,280000;1765795438977624;0
443;1765795438978146;-1526,850000;1765795438978146;215,280000;1765795438977624;0
444;1765795438978148;-1526,850000;1765795438978146;345,735000;1765795438978148;0
445;1765795438978673;-1455,675000;1765795438978673;345,735000;1765795438978148;0
446;1765795438978675;-1455,675000;1765795438978673;448,695000;1765795438978675;0
447;1765795438979251;-1515,930000;1765795438979251;448,695000;1765795438978675;0
448;1765795438979252;-1515,930000;1765795438979251;355,875000;1765795438979252;0
449;1765795438979799;-1605,825000;1765795438979799;355,875000;1765795438979252;0
450;1765795438979801;-1605,825000;1765795438979799;285,090000;1765795438979801;0
451;1765795438980372;-2047,305000;1765795438980372;285,090000;1765795438979801;0
452;1765795438980374;-2047,305000;1765795438980372;187,980000;1765795438980374;0
453;1765795438980953;-1941,225000;1765795438980953;187,980000;1765795438980374;0
454;1765795438980955;-1941,225000;1765795438980953;278,070000;1765795438980955;0
455;1765795438981510;-1942,590000;1765795438981510;278,070000;1765795438980955;0
456;1765795438981511;-1942,590000;1765795438981510;90,480000;1765795438981511;0
457;1765795438982298;-1942,200000;1765795438982298;90,480000;1765795438981511;0
458;1765795438982299;-1942,200000;1765795438982298;47,190000;1765795438982299;0
459;1765795438982813;-1884,090000;1765795438982813;47,190000;1765795438982299;0
460;1765795438982814;-1884,090000;1765795438982813;89,310000;1765795438982814;0
461;1765795438983478;-1726,530000;1765795438983478;89,310000;1765795438982814;0
462;1765795438983480;-1726,530000;1765795438983478;118,950000;1765795438983480;0
463;1765795438983952;-2051,010000;1765795438983952;118,950000;1765795438983480;0
464;1765795438983953;-2051,010000;1765795438983952;155,025000;1765795438983953;0
465;1765795438984509;-1842,555000;1765795438984509;155,025000;1765795438983953;0
466;1765795438984511;-1842,555000;1765795438984509;63,180000;1765795438984511;0
467;1765795438984897;-1842,555000;1765795438984509;-466,050000;1765795438984897;0
468;1765795438985409;-2013,960000;1765795438985409;-466,050000;1765795438984897;0
469;1765795438985410;-2013,960000;1765795438985409;-513,045000;1765795438985410;0
470;1765795438985980;-1483,365000;1765795438985980;-513,045000;1765795438985410;0
471;1765795438985981;-1483,365000;1765795438985980;-91,650000;1765795438985981;0
472;1765795438986546;-1510,665000;1765795438986546;-91,650000;1765795438985981;0
473;1765795438986547;-1510,665000;1765795438986546;-235,170000;1765795438986547;0
474;1765795438987065;-1698,255000;1765795438987065;-235,170000;1765795438986547;0
475;1765795438987066;-1698,255000;1765795438987065;-552,435000;1765795438987066;0
476;1765795438987704;-1505,985000;1765795438987704;-552,435000;1765795438987066;0
477;1765795438987705;-1505,985000;1765795438987704;-535,665000;1765795438987705;0
478;1765795438988364;-1221,090000;1765795438988364;-535,665000;1765795438987705;0
479;1765795438988368;-1221,090000;1765795438988364;-399,945000;1765795438988368;0
480;1765795439034660;-1374,750000;1765795439034660;-399,945000;1765795438988368;0
481;1765795439034662;-1374,750000;1765795439034660;-438,555000;1765795439034662;0
482;1765795439034878;-722,865000;1765795439034878;-438,555000;1765795439034662;0
483;1765795439034879;-722,865000;1765795439034878;73,710000;1765795439034879;0
484;1765795439035375;-915,135000;1765795439035375;73,710000;1765795439034879;0
485;1765795439035377;-915,135000;1765795439035375;107,640000;1765795439035377;0
486;1765795439035834;-605,085000;1765795439035834;107,640000;1765795439035377;0
487;1765795439035835;-605,085000;1765795439035834;187,590000;1765795439035835;0
488;1765795439036405;-687,765000;1765795439036405;187,590000;1765795439035835;0
489;1765795439036406;-687,765000;1765795439036405;215,280000;1765795439036406;0
490;1765795439036877;-346,320000;1765795439036877;215,280000;1765795439036406;0
491;1765795439036878;-346,320000;1765795439036877;325,260000;1765795439036878;0
492;1765795439037638;-652,275000;1765795439037638;325,260000;1765795439036878;0
493;1765795439037643;-652,275000;1765795439037638;192,270000;1765795439037643;0
494;1765795439038128;-362,310000;1765795439038128;192,270000;1765795439037643;0
495;1765795439038129;-362,310000;1765795439038128;381,030000;1765795439038129;0
496;1765795439038810;-809,250000;1765795439038810;381,030000;1765795439038129;0
497;1765795439038812;-809,250000;1765795439038810;257,400000;1765795439038812;0
498;1765795439040233;-523,185000;1765795439040233;257,400000;1765795439038812;0
499;1765795439040238;-523,185000;1765795439040233;257,790000;1765795439040238;0
500;1765795439040395;-575,250000;1765795439040395;257,790000;1765795439040238;0
501;1765795439040397;-575,250000;1765795439040395;307,320000;1765795439040397;0
502;1765795439040557;-677,625000;1765795439040557;307,320000;1765795439040397;0
503;1765795439040559;-677,625000;1765795439040557;244,920000;1765795439040559;0
504;1765795439041111;-616,200000;1765795439041111;244,920000;1765795439040559;0
505;1765795439041114;-616,200000;1765795439041111;223,470000;1765795439041114;0
506;1765795439041693;-815,685000;1765795439041693;223,470000;1765795439041114;0
507;1765795439041695;-815,685000;1765795439041693;61,425000;1765795439041695;0
508;1765795439042464;-376,155000;1765795439042464;61,425000;1765795439041695;0
509;1765795439042467;-376,155000;1765795439042464;241,605000;1765795439042467;0
510;1765795439042903;-592,410000;1765795439042903;241,605000;1765795439042467;0
511;1765795439042905;-592,410000;1765795439042903;79,755000;1765795439042905;0
512;1765795439043389;-445,185000;1765795439043389;79,755000;1765795439042905;0
513;1765795439043391;-445,185000;1765795439043389;101,595000;1765795439043391;0
514;1765795439043822;-729,105000;1765795439043822;101,595000;1765795439043391;0
515;1765795439043824;-729,105000;1765795439043822;1,755000;1765795439043824;0
516;1765795439044734;-358,410000;1765795439044734;1,755000;1765795439043824;0
517;1765795439044737;-358,410000;1765795439044734;50,700000;1765795439044737;0
518;1765795439045316;-1219,530000;1765795439045316;50,700000;1765795439044737;0
519;1765795439045319;-1219,530000;1765795439045316;-665,730000;1765795439045319;0
520;1765795439046419;-963,690000;1765795439046419;-665,730000;1765795439045319;0
521;1765795439046424;-963,690000;1765795439046419;-752,115000;1765795439046424;0
522;1765795439046950;-963,690000;1765795439046419;-677,625000;1765795439046950;0
523;1765795439047109;-257,010000;1765795439047109;-677,625000;1765795439046950;0
524;1765795439047111;-257,010000;1765795439047109;-503,490000;1765795439047111;0
525;1765795439047345;-542,100000;1765795439047345;-503,490000;1765795439047111;0
526;1765795439047348;-542,100000;1765795439047345;-283,530000;1765795439047348;0
527;1765795439047919;-456,690000;1765795439047919;-283,530000;1765795439047348;0
528;1765795439047923;-456,690000;1765795439047919;-700,635000;1765795439047923;0
529;1765795439095046;-328,380000;1765795439095046;-700,635000;1765795439047923;0
530;1765795439095048;-328,380000;1765795439095046;-166,530000;1765795439095048;0
531;1765795439095170;382,590000;1765795439095170;-166,530000;1765795439095048;0
532;1765795439095172;382,590000;1765795439095170;306,150000;1765795439095172;0
533;1765795439096081;559,260000;1765795439096081;306,150000;1765795439095172;0
534;1765795439096083;559,260000;1765795439096081;221,910000;1765795439096083;0
535;1765795439096507;351,390000;1765795439096507;221,910000;1765795439096083;0
536;1765795439096508;351,390000;1765795439096507;328,380000;1765795439096508;0
537;1765795439097034;578,175000;1765795439097034;328,380000;1765795439096508;0
538;1765795439097036;578,175000;1765795439097034;251,355000;1765795439097036;0
539;1765795439097635;593,580000;1765795439097635;251,355000;1765795439097036;0
540;1765795439097637;593,580000;1765795439097635;275,925000;1765795439097637;0
541;1765795439098331;709,215000;1765795439098331;275,925000;1765795439097637;0
542;1765795439098333;709,215000;1765795439098331;401,895000;1765795439098333;0
543;1765795439099179;515,775000;1765795439099179;401,895000;1765795439098333;0
544;1765795439099181;515,775000;1765795439099179;203,580000;1765795439099181;0
545;1765795439099363;787,995000;1765795439099363;203,580000;1765795439099181;0
546;1765795439099365;787,995000;1765795439099363;183,105000;1765795439099365;0
547;1765795439099771;732,030000;1765795439099771;183,105000;1765795439099365;0
548;1765795439099773;732,030000;1765795439099771;270,270000;1765795439099773;0
549;1765795439100441;648,960000;1765795439100441;270,270000;1765795439099773;0
550;1765795439100443;648,960000;1765795439100441;247,455000;1765795439100443;0
551;1765795439101249;790,335000;1765795439101249;247,455000;1765795439100443;0
552;1765795439101251;790,335000;1765795439101249;139,230000;1765795439101251;0
553;1765795439101565;1037,595000;1765795439101565;139,230000;1765795439101251;0
554;1765795439101567;1037,595000;1765795439101565;247,455000;1765795439101567;0
555;1765795439102497;829,920000;1765795439102497;247,455000;1765795439101567;0
556;1765795439102499;829,920000;1765795439102497;108,030000;1765795439102499;0
557;1765795439102956;1177,020000;1765795439102956;108,030000;1765795439102499;0
558;1765795439102958;1177,020000;1765795439102956;265,395000;1765795439102958;0
559;1765795439103417;1181,895000;1765795439103417;265,395000;1765795439102958;0
560;1765795439103418;1181,895000;1765795439103417;204,750000;1765795439103418;0
561;1765795439103920;1251,510000;1765795439103920;204,750000;1765795439103418;0
562;1765795439103921;1251,510000;1765795439103920;207,675000;1765795439103921;0
563;1765795439104496;1436,760000;1765795439104496;207,675000;1765795439103921;0
564;1765795439104497;1436,760000;1765795439104496;32,175000;1765795439104497;0
565;1765795439105053;1164,735000;1765795439105053;32,175000;1765795439104497;0
566;1765795439105056;1164,735000;1765795439105053;-395,265000;1765795439105056;0
567;1765795439105594;711,555000;1765795439105594;-395,265000;1765795439105056;0
568;1765795439105596;711,555000;1765795439105594;-577,395000;1765795439105596;0
569;1765795439106764;1127,295000;1765795439106764;-577,395000;1765795439105596;0
570;1765795439106770;1127,295000;1765795439106764;-556,335000;1765795439106770;0
571;1765795439106962;838,110000;1765795439106962;-556,335000;1765795439106770;0
572;1765795439106965;838,110000;1765795439106962;-827,190000;1765795439106965;0
573;1765795439107340;859,950000;1765795439107340;-827,190000;1765795439106965;0
574;1765795439107343;859,950000;1765795439107340;-461,955000;1765795439107343;0
575;1765795439108044;987,675000;1765795439108044;-461,955000;1765795439107343;0
576;1765795439108046;987,675000;1765795439108044;-566,280000;1765795439108046;0
577;1765795439108677;1718,145000;1765795439108677;-566,280000;1765795439108046;0
578;1765795439108679;1718,145000;1765795439108677;-220,545000;1765795439108679;0
579;1765795439154694;1043,640000;1765795439154694;-220,545000;1765795439108679;0
580;1765795439154699;1043,640000;1765795439154694;-407,745000;1765795439154699;0
581;1765795439154942;2067,390000;1765795439154942;-407,745000;1765795439154699;0
582;1765795439154944;2067,390000;1765795439154942;231,075000;1765795439154944;0
583;1765795439155311;1745,055000;1765795439155311;231,075000;1765795439154944;0
584;1765795439155313;1745,055000;1765795439155311;239,070000;1765795439155313;0
585;1765795439155812;1838,655000;1765795439155812;239,070000;1765795439155313;0
586;1765795439155815;1838,655000;1765795439155812;249,795000;1765795439155815;0
587;1765795439156490;2128,815000;1765795439156490;249,795000;1765795439155815;0
588;1765795439156493;2128,815000;1765795439156490;239,070000;1765795439156493;0
589;1765795439157096;1943,565000;1765795439157096;239,070000;1765795439156493;0
590;1765795439157098;1943,565000;1765795439157096;80,535000;1765795439157098;0
591;1765795439162940;2504,190000;1765795439162940;80,535000;1765795439157098;0
592;1765795439162942;2504,190000;1765795439162940;419,835000;1765795439162942;0
593;1765795439163575;2311,920000;1765795439163575;419,835000;1765795439162942;0
594;1765795439163577;2311,920000;1765795439163575;251,355000;1765795439163577;0
595;1765795439163750;2204,670000;1765795439163750;251,355000;1765795439163577;0
596;1765795439163751;2204,670000;1765795439163750;214,110000;1765795439163751;0
597;1765795439164283;2409,615000;1765795439164283;214,110000;1765795439163751;0
598;1765795439164284;2409,615000;1765795439164283;165,750000;1765795439164284;0
599;1765795439164407;2737,605000;1765795439164407;165,750000;1765795439164284;0
600;1765795439164408;2737,605000;1765795439164407;236,145000;1765795439164408;0
601;1765795439164490;2607,735000;1765795439164490;236,145000;1765795439164408;0
602;1765795439164492;2607,735000;1765795439164490;282,750000;1765795439164492;0
603;1765795439165133;2652,975000;1765795439165133;282,750000;1765795439164492;0
604;1765795439165134;2652,975000;1765795439165133;357,630000;1765795439165134;0
605;1765795439165743;2454,075000;1765795439165743;357,630000;1765795439165134;0
606;1765795439165745;2454,075000;1765795439165743;30,810000;1765795439165745;0
607;1765795439165839;2706,015000;1765795439165839;30,810000;1765795439165745;0
608;1765795439165840;2706,015000;1765795439165839;56,355000;1765795439165840;0
609;1765795439165906;2643,615000;1765795439165906;56,355000;1765795439165840;0
610;1765795439165907;2643,615000;1765795439165906;158,535000;1765795439165907;0
611;1765795439165973;3108,105000;1765795439165973;158,535000;1765795439165907;0
612;1765795439165975;3108,105000;1765795439165973;367,185000;1765795439165975;0
613;1765795439166452;2861,040000;1765795439166452;367,185000;1765795439165975;0
614;1765795439166453;2861,040000;1765795439166452;129,870000;1765795439166453;0
615;1765795439167038;103,350000;1765795439167038;129,870000;1765795439166453;0
616;1765795439167039;103,350000;1765795439167038;-405,405000;1765795439167039;0
617;1765795439167110;-113,490000;1765795439167110;-405,405000;1765795439167039;0
618;1765795439167111;-113,490000;1765795439167110;-582,465000;1765795439167111;0
619;1765795439168844;-113,490000;1765795439167110;-537,615000;1765795439168844;0
620;1765795439168985;68,445000;1765795439168985;-537,615000;1765795439168844;0
621;1765795439168986;68,445000;1765795439168985;-526,110000;1765795439168986;0
622;1765795439170482;522,015000;1765795439170482;-526,110000;1765795439168986;0
623;1765795439170484;522,015000;1765795439170482;-252,915000;1765795439170484;0
624;1765795439170991;553,020000;1765795439170991;-252,915000;1765795439170484;0
625;1765795439170992;553,020000;1765795439170991;-592,605000;1765795439170992;0
626;1765795439171696;657,345000;1765795439171696;-592,605000;1765795439170992;0
627;1765795439171698;657,345000;1765795439171696;-157,170000;1765795439171698;0
628;1765795439214638;835,575000;1765795439214638;-157,170000;1765795439171698;0
629;1765795439214640;835,575000;1765795439214638;-66,690000;1765795439214640;0
630;1765795439214899;1205,880000;1765795439214899;-66,690000;1765795439214640;0
631;1765795439214901;1205,880000;1765795439214899;166,335000;1765795439214901;0
632;1765795439215251;1207,245000;1765795439215251;166,335000;1765795439214901;0
633;1765795439215254;1207,245000;1765795439215251;175,110000;1765795439215254;0
634;1765795439215813;1207,245000;1765795439215251;269,295000;1765795439215813;0
635;1765795439216536;1522,170000;1765795439216536;269,295000;1765795439215813;0
636;1765795439216537;1522,170000;1765795439216536;304,590000;1765795439216537;0
637;1765795439216940;1772,550000;1765795439216940;304,590000;1765795439216537;0
638;1765795439216941;1772,550000;1765795439216940;182,520000;1765795439216941;0
639;1765795439217891;1774,110000;1765795439217891;182,520000;1765795439216941;0
640;1765795439217892;1774,110000;1765795439217891;135,525000;1765795439217892;0
641;1765795439218066;1731,405000;1765795439218066;135,525000;1765795439217892;0
642;1765795439218067;1731,405000;1765795439218066;338,910000;1765795439218067;0
643;1765795439218607;1792,830000;1765795439218607;338,910000;1765795439218067;0
644;1765795439218608;1792,830000;1765795439218607;283,335000;1765795439218608;0
645;1765795439219340;2001,285000;1765795439219340;283,335000;1765795439218608;0
646;1765795439219342;2001,285000;1765795439219340;312,975000;1765795439219342;0
647;1765795439219629;1845,285000;1765795439219629;312,975000;1765795439219342;0
648;1765795439219630;1845,285000;1765795439219629;85,410000;1765795439219630;0
649;1765795439220455;1841,775000;1765795439220455;85,410000;1765795439219630;0
650;1765795439220456;1841,775000;1765795439220455;101,205000;1765795439220456;0
651;1765795439220860;2185,950000;1765795439220860;101,205000;1765795439220456;0
652;1765795439220862;2185,950000;1765795439220860;273,585000;1765795439220862;0
653;1765795439221572;2185,950000;1765795439220860;98,085000;1765795439221572;0
654;1765795439222655;2262,195000;1765795439222655;98,085000;1765795439221572;0
655;1765795439222659;2262,195000;1765795439222655;85,995000;1765795439222659;0
656;1765795439223175;2049,840000;1765795439223175;85,995000;1765795439222659;0
657;1765795439223178;2049,840000;1765795439223175;-14,235000;1765795439223178;0
658;1765795439223609;2233,335000;1765795439223609;-14,235000;1765795439223178;0
659;1765795439223612;2233,335000;1765795439223609;100,815000;1765795439223612;0
660;1765795439224382;2305,095000;1765795439224382;100,815000;1765795439223612;0
661;1765795439224385;2305,095000;1765795439224382;86,190000;1765795439224385;0
662;1765795439224757;1281,150000;1765795439224757;86,190000;1765795439224385;0
663;1765795439224760;1281,150000;1765795439224757;-654,225000;1765795439224760;0
664;1765795439225247;848,835000;1765795439225247;-654,225000;1765795439224760;0
665;1765795439225249;848,835000;1765795439225247;-815,490000;1765795439225249;0
666;1765795439225735;1149,135000;1765795439225735;-815,490000;1765795439225249;0
667;1765795439225738;1149,135000;1765795439225735;-163,215000;1765795439225738;0
668;1765795439226351;883,935000;1765795439226351;-163,215000;1765795439225738;0
669;1765795439226353;883,935000;1765795439226351;-731,835000;1765795439226353;0
670;1765795439226861;959,205000;1765795439226861;-731,835000;1765795439226353;0
671;1765795439226864;959,205000;1765795439226861;-383,760000;1765795439226864;0
672;1765795439275520;1101,750000;1765795439275520;-383,760000;1765795439226864;0
673;1765795439275524;1101,750000;1765795439275520;-814,905000;1765795439275524;0
674;1765795439275785;1062,360000;1765795439275785;-814,905000;1765795439275524;0
675;1765795439275787;1062,360000;1765795439275785;-347,490000;1765795439275787;0
676;1765795439275853;1960,335000;1765795439275853;-347,490000;1765795439275787;0
677;1765795439275854;1960,335000;1765795439275853;36,270000;1765795439275854;0
678;1765795439276541;1726,140000;1765795439276541;36,270000;1765795439275854;0
679;1765795439276543;1726,140000;1765795439276541;303,030000;1765795439276543;0
680;1765795439277223;1632,735000;1765795439277223;303,030000;1765795439276543;0
681;1765795439277225;1632,735000;1765795439277223;290,940000;1765795439277225;0
682;1765795439277567;1665,495000;1765795439277567;290,940000;1765795439277225;0
683;1765795439277569;1665,495000;1765795439277567;290,355000;1765795439277569;0
684;1765795439278153;1880,190000;1765795439278153;290,355000;1765795439277569;0
685;1765795439278155;1880,190000;1765795439278153;215,475000;1765795439278155;0
686;1765795439278422;1926,990000;1765795439278422;215,475000;1765795439278155;0
687;1765795439278424;1926,990000;1765795439278422;285,675000;1765795439278424;0
688;1765795439279067;1854,645000;1765795439279067;285,675000;1765795439278424;0
689;1765795439279068;1854,645000;1765795439279067;133,575000;1765795439279068;0
690;1765795439282656;1712,880000;1765795439282656;133,575000;1765795439279068;0
691;1765795439282658;1712,880000;1765795439282656;264,030000;1765795439282658;0
692;1765795439282751;1757,535000;1765795439282751;264,030000;1765795439282658;0
693;1765795439282753;1757,535000;1765795439282751;191,295000;1765795439282753;0
694;1765795439282825;1610,700000;1765795439282825;191,295000;1765795439282753;0
695;1765795439282827;1610,700000;1765795439282825;89,310000;1765795439282827;0
696;1765795439282961;1481,025000;1765795439282961;89,310000;1765795439282827;0
697;1765795439282963;1481,025000;1765795439282961;-9,360000;1765795439282963;0
698;1765795439283037;1481,025000;1765795439282961;335,205000;1765795439283037;0
699;1765795439283098;1670,175000;1765795439283098;335,205000;1765795439283037;0
700;1765795439283099;1670,175000;1765795439283098;25,740000;1765795439283099;0
701;1765795439283274;1793,025000;1765795439283274;25,740000;1765795439283099;0
702;1765795439283275;1793,025000;1765795439283274;159,900000;1765795439283275;0
703;1765795439284574;1679,340000;1765795439284574;159,900000;1765795439283275;0
704;1765795439284576;1679,340000;1765795439284574;91,455000;1765795439284576;0
705;1765795439284742;428,415000;1765795439284742;-525,330000;1765795439284742;0
706;1765795439285665;91,455000;1765795439285665;-526,110000;1765795439285665;0
707;1765795439285769;648,375000;1765795439285769;-526,110000;1765795439285665;0
708;1765795439285771;648,375000;1765795439285769;-295,230000;1765795439285771;0
709;1765795439286394;154,050000;1765795439286394;-295,230000;1765795439285771;0
710;1765795439286395;154,050000;1765795439286394;-747,825000;1765795439286395;0
711;1765795439286673;154,050000;1765795439286394;-632,385000;1765795439286673;0
712;1765795439287167;26,715000;1765795439287167;-632,385000;1765795439286673;0
713;1765795439287169;26,715000;1765795439287167;-542,490000;1765795439287169;0
714;1765795439287672;33,345000;1765795439287672;-542,490000;1765795439287169;0
715;1765795439287677;33,345000;1765795439287672;-620,490000;1765795439287677;0
716;1765795439334630;-33,345000;1765795439334630;-620,490000;1765795439287677;0
717;1765795439334632;-33,345000;1765795439334630;-196,560000;1765795439334632;0
718;1765795439334827;802,815000;1765795439334827;-196,560000;1765795439334632;0
719;1765795439334828;802,815000;1765795439334827;356,655000;1765795439334828;0
720;1765795439335742;673,335000;1765795439335742;356,655000;1765795439334828;0
721;1765795439335744;673,335000;1765795439335742;253,695000;1765795439335744;0
722;1765795439336329;483,015000;1765795439336329;253,695000;1765795439335744;0
723;1765795439336332;483,015000;1765795439336329;208,455000;1765795439336332;0
724;1765795439336971;391,170000;1765795439336971;208,455000;1765795439336332;0
725;1765795439336972;391,170000;1765795439336971;267,150000;1765795439336972;0
726;1765795439337624;431,535000;1765795439337624;267,150000;1765795439336972;0
727;1765795439337625;431,535000;1765795439337624;353,535000;1765795439337625;0
728;1765795439338208;467,610000;1765795439338208;353,535000;1765795439337625;0
729;1765795439338210;467,610000;1765795439338208;397,410000;1765795439338210;0
730;1765795439338729;57,915000;1765795439338729;397,410000;1765795439338210;0
731;1765795439338757;57,915000;1765795439338729;165,750000;1765795439338757;0
732;1765795439339296;175,890000;1765795439339296;165,750000;1765795439338757;0
733;1765795439339299;175,890000;1765795439339296;335,985000;1765795439339299;0
734;1765795439339959;-37,050000;1765795439339959;335,985000;1765795439339299;0
735;1765795439339961;-37,050000;1765795439339959;215,475000;1765795439339961;0
736;1765795439340659;364,455000;1765795439340659;215,475000;1765795439339961;0
737;1765795439340661;364,455000;1765795439340659;265,200000;1765795439340661;0
738;1765795439340995;15,990000;1765795439340995;265,200000;1765795439340661;0
739;1765795439340997;15,990000;1765795439340995;231,660000;1765795439340997;0
740;1765795439341488;15,990000;1765795439340995;196,365000;1765795439341488;0
741;1765795439342451;-216,645000;1765795439342451;196,365000;1765795439341488;0
742;1765795439342456;-216,645000;1765795439342451;129,675000;1765795439342456;0
743;1765795439342955;-243,360000;1765795439342955;129,675000;1765795439342456;0
744;1765795439342958;-243,360000;1765795439342955;140,790000;1765795439342958;0
745;1765795439343324;-174,330000;1765795439343324;140,790000;1765795439342958;0
746;1765795439343325;-174,330000;1765795439343324;206,310000;1765795439343325;0
747;1765795439343869;-53,235000;1765795439343869;206,310000;1765795439343325;0
748;1765795439343871;-53,235000;1765795439343869;315,315000;1765795439343871;0
749;1765795439344380;-1384,500000;1765795439344380;315,315000;1765795439343871;0
750;1765795439344381;-1384,500000;1765795439344380;-814,515000;1765795439344381;0
751;1765795439344896;-1133,925000;1765795439344896;-814,515000;1765795439344381;0
752;1765795439344898;-1133,925000;1765795439344896;-457,275000;1765795439344898;0
753;1765795439345557;-1180,335000;1765795439345557;-457,275000;1765795439344898;0
754;1765795439345558;-1180,335000;1765795439345557;-103,935000;1765795439345558;0
755;1765795439346030;-1252,680000;1765795439346030;-103,935000;1765795439345558;0
756;1765795439346031;-1252,680000;1765795439346030;-491,985000;1765795439346031;0
757;1765795439346465;-1755,195000;1765795439346465;-491,985000;1765795439346031;0
758;1765795439346466;-1755,195000;1765795439346465;-401,505000;1765795439346466;0
759;1765795439394837;-1687,530000;1765795439394837;-401,505000;1765795439346466;0
760;1765795439394840;-1687,530000;1765795439394837;-840,450000;1765795439394840;0
761;1765795439395002;-1831,245000;1765795439395002;-840,450000;1765795439394840;0
762;1765795439395003;-1831,245000;1765795439395002;-406,575000;1765795439395003;0
763;1765795439395367;-1046,370000;1765795439395367;-406,575000;1765795439395003;0
764;1765795439395368;-1046,370000;1765795439395367;190,710000;1765795439395368;0
765;1765795439396449;-1276,275000;1765795439396449;190,710000;1765795439395368;0
766;1765795439396450;-1276,275000;1765795439396449;-5,265000;1765795439396450;0
767;1765795439396583;-1299,090000;1765795439396583;-5,265000;1765795439396450;0
768;1765795439396584;-1299,090000;1765795439396583;95,550000;1765795439396584;0
769;1765795439397095;-1318,785000;1765795439397095;95,550000;1765795439396584;0
770;1765795439397101;-1318,785000;1765795439397095;210,210000;1765795439397101;0
771;1765795439397575;-1477,125000;1765795439397575;210,210000;1765795439397101;0
772;1765795439397577;-1477,125000;1765795439397575;117,195000;1765795439397577;0
773;1765795439398202;-1402,050000;1765795439398202;117,195000;1765795439397577;0
774;1765795439398203;-1402,050000;1765795439398202;283,335000;1765795439398203;0
775;1765795439398650;-1662,570000;1765795439398650;283,335000;1765795439398203;0
776;1765795439398652;-1662,570000;1765795439398650;220,935000;1765795439398652;0
777;1765795439399234;-1631,760000;1765795439399234;220,935000;1765795439398652;0
778;1765795439399235;-1631,760000;1765795439399234;171,405000;1765795439399235;0
779;1765795439399741;-1558,050000;1765795439399741;171,405000;1765795439399235;0
780;1765795439399742;-1558,050000;1765795439399741;279,825000;1765795439399742;0
781;1765795439400558;-1639,170000;1765795439400558;279,825000;1765795439399742;0
782;1765795439400560;-1639,170000;1765795439400558;146,445000;1765795439400560;0
783;1765795439400835;-1690,260000;1765795439400835;146,445000;1765795439400560;0
784;1765795439400836;-1690,260000;1765795439400835;246,285000;1765795439400836;0
785;1765795439401602;-1542,450000;1765795439401602;246,285000;1765795439400836;0
786;1765795439401603;-1542,450000;1765795439401602;195,000000;1765795439401603;0
787;1765795439402505;-1908,075000;1765795439402505;195,000000;1765795439401603;0
788;1765795439402506;-1908,075000;1765795439402505;172,185000;1765795439402506;0
789;1765795439402912;-1838,265000;1765795439402912;172,185000;1765795439402506;0
790;1765795439402914;-1838,265000;1765795439402912;253,110000;1765795439402914;0
791;1765795439403311;-1998,945000;1765795439403311;253,110000;1765795439402914;0
792;1765795439403312;-1998,945000;1765795439403311;90,675000;1765795439403312;0
793;1765795439403751;-2319,330000;1765795439403751;90,675000;1765795439403312;0
794;1765795439403752;-2319,330000;1765795439403751;16,380000;1765795439403752;0
795;1765795439404411;-2516,865000;1765795439404411;16,380000;1765795439403752;0
796;1765795439404412;-2516,865000;1765795439404411;-14,625000;1765795439404412;0
797;1765795439404991;-3140,865000;1765795439404991;-14,625000;1765795439404412;0
798;1765795439404992;-3140,865000;1765795439404991;-938,730000;1765795439404992;0
799;1765795439405663;-2836,665000;1765795439405663;-938,730000;1765795439404992;0
800;1765795439405665;-2836,665000;1765795439405663;-601,185000;1765795439405665;0
801;1765795439406329;-2840,370000;1765795439406329;-601,185000;1765795439405665;0
802;1765795439406331;-2840,370000;1765795439406329;-342,420000;1765795439406331;0
803;1765795439406991;-2592,330000;1765795439406991;-342,420000;1765795439406331;0
804;1765795439406993;-2592,330000;1765795439406991;-650,910000;1765795439406993;0
805;1765795439407744;-2506,530000;1765795439407744;-650,910000;1765795439406993;0
806;1765795439407746;-2506,530000;1765795439407744;-713,895000;1765795439407746;0
807;1765795439454863;-2313,480000;1765795439454863;-713,895000;1765795439407746;0
808;1765795439454868;-2313,480000;1765795439454863;-586,170000;1765795439454868;0
809;1765795439455043;-2179,905000;1765795439455043;-586,170000;1765795439454868;0
810;1765795439455045;-2179,905000;1765795439455043;-111,735000;1765795439455045;0
811;1765795439455401;-2028,780000;1765795439455401;-111,735000;1765795439455045;0
812;1765795439455403;-2028,780000;1765795439455401;81,900000;1765795439455403;0
813;1765795439455867;-1875,315000;1765795439455867;81,900000;1765795439455403;0
814;1765795439455869;-1875,315000;1765795439455867;316,485000;1765795439455869;0
815;1765795439456491;-2071,290000;1765795439456491;316,485000;1765795439455869;0
816;1765795439456493;-2071,290000;1765795439456491;295,230000;1765795439456493;0
817;1765795439457177;-2138,370000;1765795439457177;295,230000;1765795439456493;0
818;1765795439457179;-2138,370000;1765795439457177;82,680000;1765795439457179;0
819;1765795439457583;-2004,990000;1765795439457583;82,680000;1765795439457179;0
820;1765795439457587;-2004,990000;1765795439457583;228,930000;1765795439457587;0
821;1765795439458163;-2005,965000;1765795439458163;228,930000;1765795439457587;0
822;1765795439458165;-2005,965000;1765795439458163;364,260000;1765795439458165;0
823;1765795439458750;-2407,665000;1765795439458750;364,260000;1765795439458165;0
824;1765795439458751;-2407,665000;1765795439458750;146,445000;1765795439458751;0
825;1765795439459884;-2133,105000;1765795439459884;146,445000;1765795439458751;0
826;1765795439459885;-2133,105000;1765795439459884;266,760000;1765795439459885;0
827;1765795439514877;-2273,700000;1765795439514877;266,760000;1765795439459885;0
828;1765795439514879;-2273,700000;1765795439514877;178,035000;1765795439514879;0
829;1765795439514981;-2396,745000;1765795439514981;178,035000;1765795439514879;0
830;1765795439514982;-2396,745000;1765795439514981;117,390000;1765795439514982;0
831;1765795439515247;-2651,025000;1765795439515247;117,390000;1765795439514982;0
832;1765795439515248;-2651,025000;1765795439515247;-65,715000;1765795439515248;0
833;1765795439515864;-2651,025000;1765795439515247;220,350000;1765795439515864;0
834;1765795439516466;-2419,170000;1765795439516466;220,350000;1765795439515864;0
835;1765795439516467;-2419,170000;1765795439516466;95,550000;1765795439516467;0
836;1765795439517068;-2343,120000;1765795439517068;95,550000;1765795439516467;0
837;1765795439517070;-2343,120000;1765795439517068;163,800000;1765795439517070;0
838;1765795439517546;-2427,165000;1765795439517546;163,800000;1765795439517070;0
839;1765795439517547;-2427,165000;1765795439517546;-21,060000;1765795439517547;0
840;1765795439518060;-2193,555000;1765795439518060;-21,060000;1765795439517547;0
841;1765795439518061;-2193,555000;1765795439518060;201,630000;1765795439518061;0
842;1765795439518724;-2427,555000;1765795439518724;201,630000;1765795439518061;0
843;1765795439518726;-2427,555000;1765795439518724;-827,580000;1765795439518726;0
844;1765795439519378;-2446,275000;1765795439519378;-827,580000;1765795439518726;0
845;1765795439519380;-2446,275000;1765795439519378;-682,305000;1765795439519380;0
846;1765795439519675;-2117,505000;1765795439519675;-682,305000;1765795439519380;0
847;1765795439519676;-2117,505000;1765795439519675;-540,345000;1765795439519676;0
848;1765795439520390;-1016,730000;1765795439520390;-540,345000;1765795439519676;0
849;1765795439520391;-1016,730000;1765795439520390;192,855000;1765795439520391;0
850;1765795439520948;-1184,820000;1765795439520948;192,855000;1765795439520391;0
851;1765795439520949;-1184,820000;1765795439520948;168,090000;1765795439520949;0
852;1765795439521642;-1442,610000;1765795439521642;168,090000;1765795439520949;0
853;1765795439521644;-1442,610000;1765795439521642;82,095000;1765795439521644;0
854;1765795439522344;-1050,465000;1765795439522344;82,095000;1765795439521644;0
855;1765795439522346;-1050,465000;1765795439522344;208,065000;1765795439522346;0
856;1765795439522942;-1398,150000;1765795439522942;208,065000;1765795439522346;0
857;1765795439522944;-1398,150000;1765795439522942;76,440000;1765795439522944;0
858;1765795439523607;-1505,985000;1765795439523607;76,440000;1765795439522944;0
859;1765795439523609;-1505,985000;1765795439523607;174,525000;1765795439523609;0
860;1765795439524209;-1080,690000;1765795439524209;174,525000;1765795439523609;0
861;1765795439524212;-1080,690000;1765795439524209;-119,730000;1765795439524212;0
862;1765795439524633;-1239,225000;1765795439524633;-119,730000;1765795439524212;0
863;1765795439524635;-1239,225000;1765795439524633;-798,525000;1765795439524635;0
864;1765795439525207;-1222,065000;1765795439525207;-798,525000;1765795439524635;0
865;1765795439525210;-1222,065000;1765795439525207;-730,665000;1765795439525210;0
866;1765795439525632;-1211,730000;1765795439525632;-730,665000;1765795439525210;0
867;1765795439525635;-1211,730000;1765795439525632;-794,430000;1765795439525635;0
868;1765795439526257;-1018,875000;1765795439526257;-794,430000;1765795439525635;0
869;1765795439526260;-1018,875000;1765795439526257;-393,120000;1765795439526260;0
870;1765795439526836;-1099,410000;1765795439526836;-393,120000;1765795439526260;0
871;1765795439526839;-1099,410000;1765795439526836;-832,650000;1765795439526839;0
872;1765795439527477;-1108,770000;1765795439527477;-832,650000;1765795439526839;0
873;1765795439527479;-1108,770000;1765795439527477;-918,255000;1765795439527479;0
874;1765795439527914;-1108,770000;1765795439527477;-787,410000;1765795439527914;0
875;1765795439575095;-1108,770000;1765795439527477;-732,615000;1765795439575095;0
876;1765795439575376;7,800000;1765795439575376;-732,615000;1765795439575095;0
877;1765795439575379;7,800000;1765795439575376;125,775000;1765795439575379;0
878;1765795439575955;257,985000;1765795439575955;125,775000;1765795439575379;0
879;1765795439575957;257,985000;1765795439575955;233,610000;1765795439575957;0
880;1765795439581273;354,510000;1765795439581273;233,610000;1765795439575957;0
881;1765795439581275;354,510000;1765795439581273;322,530000;1765795439581275;0
882;1765795439581897;354,510000;1765795439581273;167,895000;1765795439581897;0
883;1765795439582000;72,540000;1765795439582000;167,895000;1765795439581897;0
884;1765795439582001;72,540000;1765795439582000;261,105000;1765795439582001;0
885;1765795439582075;244,920000;1765795439582075;261,105000;1765795439582001;0
886;1765795439582076;244,920000;1765795439582075;326,430000;1765795439582076;0
887;1765795439582144;15,795000;1765795439582144;326,430000;1765795439582076;0
888;1765795439582145;15,795000;1765795439582144;168,870000;1765795439582145;0
889;1765795439582307;116,415000;1765795439582307;168,870000;1765795439582145;0
890;1765795439582309;116,415000;1765795439582307;168,285000;1765795439582309;0
891;1765795439582826;228,150000;1765795439582826;168,285000;1765795439582309;0
892;1765795439582828;228,150000;1765795439582826;78,780000;1765795439582828;0
893;1765795439582932;66,495000;1765795439582932;78,780000;1765795439582828;0
894;1765795439582933;66,495000;1765795439582932;266,175000;1765795439582933;0
895;1765795439583449;367,185000;1765795439583449;279,240000;1765795439583449;0
896;1765795439583509;384,345000;1765795439583509;279,240000;1765795439583449;0
897;1765795439583510;384,345000;1765795439583509;94,575000;1765795439583510;0
898;1765795439583567;297,180000;1765795439583567;94,575000;1765795439583510;0
899;1765795439583568;297,180000;1765795439583567;29,055000;1765795439583568;0
900;1765795439583611;395,265000;1765795439583611;29,055000;1765795439583568;0
901;1765795439583612;395,265000;1765795439583611;110,175000;1765795439583612;0
902;1765795439584118;528,255000;1765795439584118;110,175000;1765795439583612;0
903;1765795439584120;528,255000;1765795439584118;141,375000;1765795439584120;0
904;1765795439584267;589,680000;1765795439584267;141,375000;1765795439584120;0
905;1765795439584268;589,680000;1765795439584267;106,470000;1765795439584268;0
906;1765795439585725;390,780000;1765795439585725;106,470000;1765795439584268;0
907;1765795439585726;390,780000;1765795439585725;-554,385000;1765795439585726;0
908;1765795439585883;141,375000;1765795439585883;-554,385000;1765795439585726;0
909;1765795439585884;141,375000;1765795439585883;-300,105000;1765795439585884;0
910;1765795439585970;556,335000;1765795439585970;-300,105000;1765795439585884;0
911;1765795439585971;556,335000;1765795439585970;-3,510000;1765795439585971;0
912;1765795439587462;-14,430000;1765795439587462;-3,510000;1765795439585971;0
913;1765795439587463;-14,430000;1765795439587462;-713,115000;1765795439587463;0
914;1765795439587641;68,055000;1765795439587641;-713,115000;1765795439587463;0
915;1765795439587642;68,055000;1765795439587641;-422,370000;1765795439587642;0
916;1765795439634743;507,390000;1765795439634743;-422,370000;1765795439587642;0
917;1765795439634745;507,390000;1765795439634743;-605,670000;1765795439634745;0
918;1765795439634895;627,120000;1765795439634895;-176,865000;1765795439634895;0
919;1765795439635343;1392,495000;1765795439635343;-176,865000;1765795439634895;0
920;1765795439635345;1392,495000;1765795439635343;251,550000;1765795439635345;0
921;1765795439636037;1351,935000;1765795439636037;251,550000;1765795439635345;0
922;1765795439636039;1351,935000;1765795439636037;176,670000;1765795439636039;0
923;1765795439636363;1530,750000;1765795439636363;176,670000;1765795439636039;0
924;1765795439636365;1530,750000;1765795439636363;265,395000;1765795439636365;0
925;1765795439636999;1231,230000;1765795439636999;265,395000;1765795439636365;0
926;1765795439637000;1231,230000;1765795439636999;-9,945000;1765795439637000;0
927;1765795439637780;1571,310000;1765795439637780;-9,945000;1765795439637000;0
928;1765795439637783;1571,310000;1765795439637780;173,550000;1765795439637783;0
929;1765795439638164;1532,895000;1765795439638164;173,550000;1765795439637783;0
930;1765795439638166;1532,895000;1765795439638164;122,850000;1765795439638166;0
931;1765795439638693;1599,390000;1765795439638693;122,850000;1765795439638166;0
932;1765795439638695;1599,390000;1765795439638693;168,285000;1765795439638695;0
933;1765795439639268;1843,335000;1765795439639268;168,285000;1765795439638695;0
934;1765795439639271;1843,335000;1765795439639268;157,950000;1765795439639271;0
935;1765795439640071;1701,375000;1765795439640071;157,950000;1765795439639271;0
936;1765795439640075;1701,375000;1765795439640071;88,920000;1765795439640075;0
937;1765795439640636;2005,965000;1765795439640636;88,920000;1765795439640075;0
938;1765795439640639;2005,965000;1765795439640636;145,080000;1765795439640639;0
939;1765795439641024;1847,820000;1765795439641024;145,080000;1765795439640639;0
940;1765795439641030;1847,820000;1765795439641024;131,040000;1765795439641030;0
941;1765795439641535;2034,045000;1765795439641535;131,040000;1765795439641030;0
942;1765795439641536;2034,045000;1765795439641535;153,075000;1765795439641536;0
943;1765795439642409;2034,045000;1765795439641535;81,120000;1765795439642409;0
944;1765795439642843;1957,800000;1765795439642843;81,120000;1765795439642409;0
945;1765795439642845;1957,800000;1765795439642843;22,620000;1765795439642845;0
946;1765795439643564;2148,120000;1765795439643564;22,620000;1765795439642845;0
947;1765795439643566;2148,120000;1765795439643564;66,495000;1765795439643566;0
948;1765795439643754;2225,340000;1765795439643754;66,495000;1765795439643566;0
949;1765795439643755;2225,340000;1765795439643754;153,855000;1765795439643755;0
950;1765795439644551;2225,340000;1765795439643754;-420,810000;1765795439644551;0
951;1765795439644861;1975,350000;1765795439644861;-420,810000;1765795439644551;0
952;1765795439644862;1975,350000;1765795439644861;-204,945000;1765795439644862;0
953;1765795439645591;1698,255000;1765795439645591;-204,945000;1765795439644862;0
954;1765795439645593;1698,255000;1765795439645591;-649,350000;1765795439645593;0
955;1765795439645924;1609,920000;1765795439645924;-649,350000;1765795439645593;0
956;1765795439645926;1609,920000;1765795439645924;-435,045000;1765795439645926;0
957;1765795439646626;1609,920000;1765795439645924;-257,985000;1765795439646626;0
958;1765795439647198;1838,655000;1765795439647198;-257,985000;1765795439646626;0
959;1765795439647199;1838,655000;1765795439647198;-338,130000;1765795439647199;0
960;1765795439647594;1823,640000;1765795439647594;-338,130000;1765795439647199;0
961;1765795439647595;1823,640000;1765795439647594;-902,265000;1765795439647595;0
962;1765795439695327;2212,860000;1765795439695327;-902,265000;1765795439647595;0
963;1765795439695329;2212,860000;1765795439695327;-212,355000;1765795439695329;0
964;1765795439695455;3021,135000;1765795439695455;-212,355000;1765795439695329;0
965;1765795439695457;3021,135000;1765795439695455;253,110000;1765795439695457;0
966;1765795439695926;3038,685000;1765795439695926;253,110000;1765795439695457;0
967;1765795439695927;3038,685000;1765795439695926;342,030000;1765795439695927;0
968;1765795439696086;3015,675000;1765795439696086;342,030000;1765795439695927;0
969;1765795439696087;3015,675000;1765795439696086;322,725000;1765795439696087;0
970;1765795439697897;3247,920000;1765795439697897;322,725000;1765795439696087;0
971;1765795439697899;3247,920000;1765795439697897;320,190000;1765795439697899;0
972;1765795439697976;3155,100000;1765795439697976;320,190000;1765795439697899;0
973;1765795439697977;3155,100000;1765795439697976;357,630000;1765795439697977;0
974;1765795439698058;3396,510000;1765795439698058;357,630000;1765795439697977;0
975;1765795439698059;3396,510000;1765795439698058;414,570000;1765795439698059;0
976;1765795439699760;3245,775000;1765795439699760;414,570000;1765795439698059;0
977;1765795439699762;3245,775000;1765795439699760;403,455000;1765795439699762;0
978;1765795439699881;2909,790000;1765795439699881;403,455000;1765795439699762;0
979;1765795439699883;2909,790000;1765795439699881;201,240000;1765795439699883;0
980;1765795439699976;3040,830000;1765795439699976;201,240000;1765795439699883;0
981;1765795439699977;3040,830000;1765795439699976;158,535000;1765795439699977;0
982;1765795439700103;3347,370000;1765795439700103;158,535000;1765795439699977;0
983;1765795439700104;3347,370000;1765795439700103;315,900000;1765795439700104;0
984;1765795439700223;3357,900000;1765795439700223;315,900000;1765795439700104;0
985;1765795439700224;3357,900000;1765795439700223;257,985000;1765795439700224;0
986;1765795439701670;2987,010000;1765795439701670;257,985000;1765795439700224;0
987;1765795439701672;2987,010000;1765795439701670;134,940000;1765795439701672;0
988;1765795439701781;3008,655000;1765795439701781;123,630000;1765795439701781;0
989;1765795439702764;3152,175000;1765795439702764;123,630000;1765795439701781;0
990;1765795439702765;3152,175000;1765795439702764;121,095000;1765795439702765;0
991;1765795439703287;3259,035000;1765795439703287;121,095000;1765795439702765;0
992;1765795439703289;3259,035000;1765795439703287;97,695000;1765795439703289;0
993;1765795439703376;3186,495000;1765795439703376;97,695000;1765795439703289;0
994;1765795439703377;3186,495000;1765795439703376;217,230000;1765795439703377;0
995;1765795439703798;3158,415000;1765795439703798;217,230000;1765795439703377;0
996;1765795439703800;3158,415000;1765795439703798;85,020000;1765795439703800;0
997;1765795439704518;124,215000;1765795439704518;-772,200000;1765795439704518;0
998;1765795439704914;-16,185000;1765795439704914;-772,200000;1765795439704518;0
999;1765795439704916;-16,185000;1765795439704914;-739,050000;1765795439704916;0
1000;1765795439705361;366,015000;1765795439705361;-739,050000;1765795439704916;0
1001;1765795439705363;366,015000;1765795439705361;-233,025000;1765795439705363;0
1002;1765795439706330;40,560000;1765795439706330;-233,025000;1765795439705363;0
1003;1765795439706332;40,560000;1765795439706330;-747,435000;1765795439706332;0
1004;1765795439706837;66,300000;1765795439706837;-747,435000;1765795439706332;0
1005;1765795439706840;66,300000;1765795439706837;-438,945000;1765795439706840;0
1006;1765795439707149;522,795000;1765795439707149;-438,945000;1765795439706840;0
1007;1765795439707151;522,795000;1765795439707149;-607,425000;1765795439707151;0
1008;1765795439754873;821,535000;1765795439754873;-607,425000;1765795439707151;0
1009;1765795439754876;821,535000;1765795439754873;-385,125000;1765795439754876;0
1010;1765795439756576;955,500000;1765795439756576;-385,125000;1765795439754876;0
1011;1765795439756579;955,500000;1765795439756576;201,630000;1765795439756579;0
1012;1765795439756964;896,805000;1765795439756964;201,630000;1765795439756579;0
1013;1765795439756966;896,805000;1765795439756964;43,485000;1765795439756966;0
1014;1765795439757200;1406,535000;1765795439757200;43,485000;1765795439756966;0
1015;1765795439757202;1406,535000;1765795439757200;312,975000;1765795439757202;0
1016;1765795439757407;1506,570000;1765795439757407;312,975000;1765795439757202;0
1017;1765795439757408;1506,570000;1765795439757407;321,165000;1765795439757408;0
1018;1765795439757694;1506,570000;1765795439757407;293,085000;1765795439757694;0
1019;1765795439757905;1089,075000;1765795439757905;293,085000;1765795439757694;0
1020;1765795439757907;1089,075000;1765795439757905;149,565000;1765795439757907;0
1021;1765795439758213;1655,550000;1765795439758213;149,565000;1765795439757907;0
1022;1765795439758214;1655,550000;1765795439758213;330,720000;1765795439758214;0
1023;1765795439758829;1316,835000;1765795439758829;330,720000;1765795439758214;0
1024;1765795439758831;1316,835000;1765795439758829;156,000000;1765795439758831;0
1025;1765795439759278;1324,635000;1765795439759278;156,000000;1765795439758831;0
1026;1765795439759279;1324,635000;1765795439759278;109,590000;1765795439759279;0
1027;1765795439760009;1293,435000;1765795439760009;109,590000;1765795439759279;0
1028;1765795439760010;1293,435000;1765795439760009;108,810000;1765795439760010;0
1029;1765795439760239;1358,175000;1765795439760239;108,810000;1765795439760010;0
1030;1765795439760240;1358,175000;1765795439760239;189,735000;1765795439760240;0
1031;1765795439760995;1291,095000;1765795439760995;189,735000;1765795439760240;0
1032;1765795439760996;1291,095000;1765795439760995;176,670000;1765795439760996;0
1033;1765795439762381;-878,085000;1765795439762381;176,670000;1765795439760996;0
1034;1765795439762382;-878,085000;1765795439762381;110,175000;1765795439762382;0
1035;1765795439762814;-770,250000;1765795439762814;110,175000;1765795439762382;0
1036;1765795439762815;-770,250000;1765795439762814;201,630000;1765795439762815;0
1037;1765795439763723;-1068,795000;1765795439763723;201,630000;1765795439762815;0
1038;1765795439763724;-1068,795000;1765795439763723;16,575000;1765795439763724;0
1039;1765795439764206;-490,425000;1765795439764206;16,575000;1765795439763724;0
1040;1765795439764207;-490,425000;1765795439764206;264,030000;1765795439764207;0
1041;1765795439764483;-995,280000;1765795439764483;264,030000;1765795439764207;0
1042;1765795439764484;-995,280000;1765795439764483;-432,705000;1765795439764484;0
1043;1765795439764861;-850,785000;1765795439764861;-432,705000;1765795439764484;0
1044;1765795439764862;-850,785000;1765795439764861;-373,620000;1765795439764862;0
1045;1765795439765679;-432,705000;1765795439765679;-373,620000;1765795439764862;0
1046;1765795439765680;-432,705000;1765795439765679;-424,905000;1765795439765680;0
1047;1765795439765926;-809,445000;1765795439765926;-424,905000;1765795439765680;0
1048;1765795439765927;-809,445000;1765795439765926;-689,715000;1765795439765927;0
1049;1765795439766681;-809,445000;1765795439765926;-291,525000;1765795439766681;0
1050;1765795439767071;-688,545000;1765795439767071;-291,525000;1765795439766681;0
1051;1765795439767072;-688,545000;1765795439767071;-272,610000;1765795439767072;0
1052;1765795439767831;-888,225000;1765795439767831;-272,610000;1765795439767072;0
1053;1765795439767832;-888,225000;1765795439767831;-855,465000;1765795439767832;0
1054;1765795439815424;-703,170000;1765795439815424;-855,465000;1765795439767832;0
1055;1765795439815426;-703,170000;1765795439815424;-283,920000;1765795439815426;0
1056;1765795439815700;-703,170000;1765795439815424;11,310000;1765795439815700;0
1057;1765795439815971;83,070000;1765795439815971;11,310000;1765795439815700;0
1058;1765795439815974;83,070000;1765795439815971;170,430000;1765795439815974;0
1059;1765795439816307;116,805000;1765795439816307;170,430000;1765795439815974;0
1060;1765795439816309;116,805000;1765795439816307;147,030000;1765795439816309;0
1061;1765795439816445;408,135000;1765795439816445;147,030000;1765795439816309;0
1062;1765795439816446;408,135000;1765795439816445;327,990000;1765795439816446;0
1063;1765795439816957;132,990000;1765795439816957;327,990000;1765795439816446;0
1064;1765795439816959;132,990000;1765795439816957;203,580000;1765795439816959;0
1065;1765795439817793;120,510000;1765795439817793;203,580000;1765795439816959;0
1066;1765795439817796;120,510000;1765795439817793;331,110000;1765795439817796;0
1067;1765795439817963;54,210000;1765795439817963;331,110000;1765795439817796;0
1068;1765795439817964;54,210000;1765795439817963;253,305000;1765795439817964;0
1069;1765795439818810;14,235000;1765795439818810;253,305000;1765795439817964;0
1070;1765795439818812;14,235000;1765795439818810;208,065000;1765795439818812;0
1071;1765795439819101;26,910000;1765795439819101;208,065000;1765795439818812;0
1072;1765795439819103;26,910000;1765795439819101;276,510000;1765795439819103;0
1073;1765795439821544;-336,180000;1765795439821544;276,510000;1765795439819103;0
1074;1765795439821546;-336,180000;1765795439821544;34,125000;1765795439821546;0
1075;1765795439821684;83,070000;1765795439821684;34,125000;1765795439821546;0
1076;1765795439821685;83,070000;1765795439821684;353,730000;1765795439821685;0
1077;1765795439821785;-212,355000;1765795439821785;353,730000;1765795439821685;0
1078;1765795439821786;-212,355000;1765795439821785;73,710000;1765795439821786;0
1079;1765795439821968;-212,355000;1765795439821785;172,770000;1765795439821968;0
1080;1765795439822407;-242,580000;1765795439822407;172,770000;1765795439821968;0
1081;1765795439822410;-242,580000;1765795439822407;81,315000;1765795439822410;0
1082;1765795439822862;-142,350000;1765795439822862;81,315000;1765795439822410;0
1083;1765795439822867;-142,350000;1765795439822862;148,590000;1765795439822867;0
1084;1765795439823254;-46,410000;1765795439823254;148,590000;1765795439822867;0
1085;1765795439823256;-46,410000;1765795439823254;99,255000;1765795439823256;0
1086;1765795439823832;-175,890000;1765795439823832;99,255000;1765795439823256;0
1087;1765795439823834;-175,890000;1765795439823832;203,775000;1765795439823834;0
1088;1765795439824409;-891,345000;1765795439824409;203,775000;1765795439823834;0
1089;1765795439824411;-891,345000;1765795439824409;-715,650000;1765795439824411;0
1090;1765795439825159;-891,345000;1765795439824409;-4192,890000;1765795439825159;0
1091;1765795439825428;-1233,180000;1765795439825428;-4192,890000;1765795439825159;0
1092;1765795439825430;-1233,180000;1765795439825428;-613,860000;1765795439825430;0
1093;1765795439826200;-1776,450000;1765795439826200;-613,860000;1765795439825430;0
1094;1765795439826201;-1776,450000;1765795439826200;-780,585000;1765795439826201;0
1095;1765795439826464;-1292,070000;1765795439826464;-780,585000;1765795439826201;0
1096;1765795439826466;-1292,070000;1765795439826464;-314,145000;1765795439826466;0
1097;1765795439827389;-1217,970000;1765795439827389;-314,145000;1765795439826466;0
1098;1765795439827390;-1217,970000;1765795439827389;-536,250000;1765795439827390;0
1099;1765795439827644;-1451,385000;1765795439827644;-536,250000;1765795439827390;0
1100;1765795439827645;-1451,385000;1765795439827644;-572,130000;1765795439827645;0
1101;1765795439828422;-1146,600000;1765795439828422;-572,130000;1765795439827645;0
1102;1765795439828423;-1146,600000;1765795439828422;-583,050000;1765795439828423;0
1103;1765795439874840;-1549,665000;1765795439874840;-583,050000;1765795439828423;0
1104;1765795439874844;-1549,665000;1765795439874840;-576,030000;1765795439874844;0
1105;1765795439875324;-856,635000;1765795439875324;-576,030000;1765795439874844;0
1106;1765795439875325;-856,635000;1765795439875324;115,440000;1765795439875325;0
1107;1765795439875475;-856,635000;1765795439875324;60,450000;1765795439875475;0
1108;1765795439875755;-975,585000;1765795439875755;60,450000;1765795439875475;0
1109;1765795439875757;-975,585000;1765795439875755;33,150000;1765795439875757;0
1110;1765795439876364;-789,165000;1765795439876364;33,150000;1765795439875757;0
1111;1765795439876365;-789,165000;1765795439876364;197,535000;1765795439876365;0
1112;1765795439876982;-713,115000;1765795439876982;197,535000;1765795439876365;0
1113;1765795439876983;-713,115000;1765795439876982;252,915000;1765795439876983;0
1114;1765795439877573;-991,185000;1765795439877573;252,915000;1765795439876983;0
1115;1765795439877575;-991,185000;1765795439877573;274,170000;1765795439877575;0
1116;1765795439878065;-1056,705000;1765795439878065;274,170000;1765795439877575;0
1117;1765795439878066;-1056,705000;1765795439878065;140,400000;1765795439878066;0
1118;1765795439878752;-1032,915000;1765795439878752;140,400000;1765795439878066;0
1119;1765795439878753;-1032,915000;1765795439878752;309,465000;1765795439878753;0
1120;1765795439879135;-1305,135000;1765795439879135;309,465000;1765795439878753;0
1121;1765795439879136;-1305,135000;1765795439879135;141,375000;1765795439879136;0
1122;1765795439879672;-1130,415000;1765795439879672;141,375000;1765795439879136;0
1123;1765795439879673;-1130,415000;1765795439879672;313,560000;1765795439879673;0
1124;1765795439880485;-1543,620000;1765795439880485;313,560000;1765795439879673;0
1125;1765795439880486;-1543,620000;1765795439880485;-26,910000;1765795439880486;0
1126;1765795439880820;-1000,350000;1765795439880820;-26,910000;1765795439880486;0
1127;1765795439880821;-1000,350000;1765795439880820;278,460000;1765795439880821;0
1128;1765795439881571;-1470,885000;1765795439881571;278,460000;1765795439880821;0
1129;1765795439881572;-1470,885000;1765795439881571;297,765000;1765795439881572;0
1130;1765795439882077;-1396,980000;1765795439882077;297,765000;1765795439881572;0
1131;1765795439882078;-1396,980000;1765795439882077;153,270000;1765795439882078;0
1132;1765795439882800;-1568,190000;1765795439882800;153,270000;1765795439882078;0
1133;1765795439882801;-1568,190000;1765795439882800;61,035000;1765795439882801;0
1134;1765795439883252;-1579,305000;1765795439883252;267,345000;1765795439883252;0
1135;1765795439883723;-1514,370000;1765795439883723;267,345000;1765795439883252;0
1136;1765795439883724;-1514,370000;1765795439883723;206,895000;1765795439883724;0
1137;1765795439884360;-2459,340000;1765795439884360;206,895000;1765795439883724;0
1138;1765795439884361;-2459,340000;1765795439884360;-518,310000;1765795439884361;0
1139;1765795439884695;-2309,970000;1765795439884695;-518,310000;1765795439884361;0
1140;1765795439884696;-2309,970000;1765795439884695;-457,665000;1765795439884696;0
1141;1765795439885644;-2093,325000;1765795439885644;-457,665000;1765795439884696;0
1142;1765795439885645;-2093,325000;1765795439885644;-744,315000;1765795439885645;0
1143;1765795439885979;-2093,325000;1765795439885644;-807,300000;1765795439885979;0
1144;1765795439886447;-1953,705000;1765795439886447;-590,655000;1765795439886447;0
1145;1765795439887268;-1850,940000;1765795439887268;-590,655000;1765795439886447;0
1146;1765795439887269;-1850,940000;1765795439887268;-295,425000;1765795439887269;0
1147;1765795439887530;-1808,820000;1765795439887530;-295,425000;1765795439887269;0
1148;1765795439887531;-1808,820000;1765795439887530;-675,090000;1765795439887531;0
1149;1765795439934453;-1631,760000;1765795439934453;-675,090000;1765795439887531;0
1150;1765795439934455;-1631,760000;1765795439934453;-131,235000;1765795439934455;0
1151;1765795439935017;-1104,675000;1765795439935017;-131,235000;1765795439934455;0
1152;1765795439935019;-1104,675000;1765795439935017;97,110000;1765795439935019;0
1153;1765795439935249;-1104,675000;1765795439935017;185,445000;1765795439935249;0
1154;1765795439935825;-1023,945000;1765795439935825;185,445000;1765795439935249;0
1155;1765795439935827;-1023,945000;1765795439935825;289,185000;1765795439935827;0
1156;1765795439936391;-1081,665000;1765795439936391;289,185000;1765795439935827;0
1157;1765795439936392;-1081,665000;1765795439936391;260,130000;1765795439936392;0
1158;1765795439936929;-1402,050000;1765795439936929;260,130000;1765795439936392;0
1159;1765795439936930;-1402,050000;1765795439936929;200,070000;1765795439936930;0
1160;1765795439937608;-1528,995000;1765795439937608;200,070000;1765795439936930;0
1161;1765795439937609;-1528,995000;1765795439937608;120,705000;1765795439937609;0
1162;1765795439938036;-1457,040000;1765795439938036;120,705000;1765795439937609;0
1163;1765795439938037;-1457,040000;1765795439938036;224,640000;1765795439938037;0
1164;1765795439938693;-1621,425000;1765795439938693;224,640000;1765795439938037;0
1165;1765795439938695;-1621,425000;1765795439938693;173,745000;1765795439938695;0
1166;1765795439939264;-1309,620000;1765795439939264;173,745000;1765795439938695;0
1167;1765795439939266;-1309,620000;1765795439939264;303,615000;1765795439939266;0
1168;1765795439939692;-1497,795000;1765795439939692;303,615000;1765795439939266;0
1169;1765795439939693;-1497,795000;1765795439939692;135,915000;1765795439939693;0
1170;1765795439940677;-1539,330000;1765795439940677;135,915000;1765795439939693;0
1171;1765795439940682;-1539,330000;1765795439940677;149,565000;1765795439940682;0
1172;1765795439941085;-1698,645000;1765795439941085;149,565000;1765795439940682;0
1173;1765795439941088;-1698,645000;1765795439941085;127,530000;1765795439941088;0
1174;1765795439941538;-1693,770000;1765795439941538;127,530000;1765795439941088;0
1175;1765795439941540;-1693,770000;1765795439941538;120,315000;1765795439941540;0
1176;1765795439942929;-1264,770000;1765795439942929;120,315000;1765795439941540;0
1177;1765795439942931;-1264,770000;1765795439942929;281,775000;1765795439942931;0
1178;1765795439943281;-1566,240000;1765795439943281;281,775000;1765795439942931;0
1179;1765795439943282;-1566,240000;1765795439943281;22,230000;1765795439943282;0
1180;1765795439944087;-1574,235000;1765795439944087;22,230000;1765795439943282;0
1181;1765795439944090;-1574,235000;1765795439944087;69,615000;1765795439944090;0
1182;1765795439944329;-1718,340000;1765795439944329;69,615000;1765795439944090;0
1183;1765795439944331;-1718,340000;1765795439944329;-650,130000;1765795439944331;0
1184;1765795439945003;-1511,055000;1765795439945003;-650,130000;1765795439944331;0
1185;1765795439945005;-1511,055000;1765795439945003;-416,130000;1765795439945005;0
1186;1765795439946125;-908,895000;1765795439946125;-416,130000;1765795439945005;0
1187;1765795439946126;-908,895000;1765795439946125;-107,250000;1765795439946126;0
1188;1765795439946601;-1244,100000;1765795439946601;-107,250000;1765795439946126;0
1189;1765795439946602;-1244,100000;1765795439946601;-537,810000;1765795439946602;0
1190;1765795439947116;-1349,985000;1765795439947116;-537,810000;1765795439946602;0
1191;1765795439947117;-1349,985000;1765795439947116;-558,285000;1765795439947117;0
1192;1765795440055967;-694,980000;1765795440055967;-558,285000;1765795439947117;0
1193;1765795440055973;-694,980000;1765795440055967;-357,825000;1765795440055973;0
1194;1765795440056190;-710,970000;1765795440056190;-357,825000;1765795440055973;0
1195;1765795440056192;-710,970000;1765795440056190;22,815000;1765795440056192;0
1196;1765795440056333;-420,225000;1765795440056333;22,815000;1765795440056192;0
1197;1765795440056334;-420,225000;1765795440056333;140,400000;1765795440056334;0
1198;1765795440056430;-150,930000;1765795440056430;140,400000;1765795440056334;0
1199;1765795440056433;-150,930000;1765795440056430;364,065000;1765795440056433;0
1200;1765795440056599;-479,505000;1765795440056599;364,065000;1765795440056433;0
1201;1765795440056602;-479,505000;1765795440056599;142,350000;1765795440056602;0
1202;1765795440057409;-545,025000;1765795440057409;142,350000;1765795440056602;0
1203;1765795440057411;-545,025000;1765795440057409;324,480000;1765795440057411;0
1204;1765795440057980;-406,770000;1765795440057980;324,480000;1765795440057411;0
1205;1765795440057982;-406,770000;1765795440057980;310,635000;1765795440057982;0
1206;1765795440058530;-591,240000;1765795440058530;310,635000;1765795440057982;0
1207;1765795440058533;-591,240000;1765795440058530;258,375000;1765795440058533;0
1208;1765795440058751;-483,210000;1765795440058751;258,375000;1765795440058533;0
1209;1765795440058754;-483,210000;1765795440058751;331,110000;1765795440058754;0
1210;1765795440059811;-365,625000;1765795440059811;331,110000;1765795440058754;0
1211;1765795440059813;-365,625000;1765795440059811;296,010000;1765795440059813;0
1212;1765795440060013;-610,740000;1765795440060013;296,010000;1765795440059813;0
1213;1765795440060018;-610,740000;1765795440060013;101,790000;1765795440060018;0
1214;1765795440060590;-678,210000;1765795440060590;101,790000;1765795440060018;0
1215;1765795440060592;-678,210000;1765795440060590;139,230000;1765795440060592;0
1216;1765795440061014;-662,610000;1765795440061014;139,230000;1765795440060592;0
1217;1765795440061016;-662,610000;1765795440061014;219,960000;1765795440061016;0
1218;1765795440061680;-733,005000;1765795440061680;219,960000;1765795440061016;0
1219;1765795440061682;-733,005000;1765795440061680;120,510000;1765795440061682;0
1220;1765795440062125;-782,145000;1765795440062125;120,510000;1765795440061682;0
1221;1765795440062126;-782,145000;1765795440062125;164,190000;1765795440062126;0
1222;1765795440062757;-622,050000;1765795440062757;164,190000;1765795440062126;0
1223;1765795440062759;-622,050000;1765795440062757;195,975000;1765795440062759;0
1224;1765795440063507;-463,905000;1765795440063507;195,975000;1765795440062759;0
1225;1765795440063508;-463,905000;1765795440063507;115,635000;1765795440063508;0
1226;1765795440063716;-423,345000;1765795440063716;115,635000;1765795440063508;0
1227;1765795440063717;-423,345000;1765795440063716;163,800000;1765795440063717;0
1228;1765795440064531;613,080000;1765795440064531;163,800000;1765795440063717;0
1229;1765795440064550;613,080000;1765795440064531;-76,050000;1765795440064550;0
1230;1765795440064830;-81,315000;1765795440064830;-76,050000;1765795440064550;0
1231;1765795440064831;-81,315000;1765795440064830;-616,395000;1765795440064831;0
1232;1765795440065565;-17,160000;1765795440065565;-616,395000;1765795440064831;0
1233;1765795440065567;-17,160000;1765795440065565;-746,850000;1765795440065567;0
1234;1765795440065908;-40,170000;1765795440065908;-746,850000;1765795440065567;0
1235;1765795440065909;-40,170000;1765795440065908;-281,970000;1765795440065909;0
1236;1765795440066727;-146,640000;1765795440066727;-281,970000;1765795440065909;0
1237;1765795440066728;-146,640000;1765795440066727;-409,695000;1765795440066728;0
1238;1765795440067035;210,015000;1765795440067035;-409,695000;1765795440066728;0
1239;1765795440067036;210,015000;1765795440067035;-323,700000;1765795440067036;0
1240;1765795440067832;-19,890000;1765795440067832;-323,700000;1765795440067036;0
1241;1765795440067833;-19,890000;1765795440067832;-713,700000;1765795440067833;0
1242;1765795440068190;397,605000;1765795440068190;-713,700000;1765795440067833;0
1243;1765795440068191;397,605000;1765795440068190;-403,650000;1765795440068191;0
1244;1765795440115436;303,420000;1765795440115436;-403,650000;1765795440068191;0
1245;1765795440115438;303,420000;1765795440115436;-459,810000;1765795440115438;0
1246;1765795440115704;960,180000;1765795440115704;-459,810000;1765795440115438;0
1247;1765795440115706;960,180000;1765795440115704;85,215000;1765795440115706;0
1248;1765795440116249;1371,630000;1765795440116249;85,215000;1765795440115706;0
1249;1765795440116250;1371,630000;1765795440116249;254,670000;1765795440116250;0
1250;1765795440118034;1225,575000;1765795440118034;254,670000;1765795440116250;0
1251;1765795440118036;1225,575000;1765795440118034;183,690000;1765795440118036;0
1252;1765795440118187;1268,670000;1765795440118187;183,690000;1765795440118036;0
1253;1765795440118189;1268,670000;1765795440118187;120,510000;1765795440118189;0
1254;1765795440119205;1263,795000;1765795440119205;120,510000;1765795440118189;0
1255;1765795440119206;1263,795000;1765795440119205;134,160000;1765795440119206;0
1256;1765795440120478;1597,440000;1765795440120478;134,160000;1765795440119206;0
1257;1765795440120479;1597,440000;1765795440120478;291,135000;1765795440120479;0
1258;1765795440120600;1581,645000;1765795440120600;301,080000;1765795440120600;0
1259;1765795440120677;1188,915000;1765795440120677;301,080000;1765795440120600;0
1260;1765795440120679;1188,915000;1765795440120677;94,380000;1765795440120679;0
1261;1765795440120731;1295,775000;1765795440120731;94,380000;1765795440120679;0
1262;1765795440120732;1295,775000;1765795440120731;32,175000;1765795440120732;0
1263;1765795440120768;1864,395000;1765795440120768;32,175000;1765795440120732;0
1264;1765795440120769;1864,395000;1765795440120768;216,255000;1765795440120769;0
1265;1765795440120806;1320,345000;1765795440120806;216,255000;1765795440120769;0
1266;1765795440120807;1320,345000;1765795440120806;26,130000;1765795440120807;0
1267;1765795440120941;1764,945000;1765795440120941;26,130000;1765795440120807;0
1268;1765795440120942;1764,945000;1765795440120941;236,925000;1765795440120942;0
1269;1765795440122059;1714,245000;1765795440122059;236,925000;1765795440120942;0
1270;1765795440122062;1714,245000;1765795440122059;128,895000;1765795440122062;0
1271;1765795440123495;1741,935000;1765795440123495;128,895000;1765795440122062;0
1272;1765795440123497;1741,935000;1765795440123495;132,990000;1765795440123497;0
1273;1765795440123754;1894,815000;1765795440123754;132,990000;1765795440123497;0
1274;1765795440123756;1894,815000;1765795440123754;-60,840000;1765795440123756;0
1275;1765795440125080;1768,065000;1765795440125080;-60,840000;1765795440123756;0
1276;1765795440125082;1768,065000;1765795440125080;81,900000;1765795440125082;0
1277;1765795440125729;2153,190000;1765795440125729;81,900000;1765795440125082;0
1278;1765795440125731;2153,190000;1765795440125729;159,315000;1765795440125731;0
1279;1765795440126525;2137,395000;1765795440126525;159,315000;1765795440125731;0
1280;1765795440126527;2137,395000;1765795440126525;-129,090000;1765795440126527;0
1281;1765795440126592;1970,865000;1765795440126592;-129,090000;1765795440126527;0
1282;1765795440126593;1970,865000;1765795440126592;-569,985000;1765795440126593;0
1283;1765795440126815;1970,865000;1765795440126592;-778,050000;1765795440126815;0
1284;1765795440126933;1970,865000;1765795440126592;-833,430000;1765795440126933;0
1285;1765795440127744;1977,105000;1765795440127744;-833,430000;1765795440126933;0
1286;1765795440127745;1977,105000;1765795440127744;-697,905000;1765795440127745;0
1287;1765795440128328;2064,270000;1765795440128328;-697,905000;1765795440127745;0
1288;1765795440128329;2064,270000;1765795440128328;-815,685000;1765795440128329;0
1289;1765795440174919;2042,040000;1765795440174919;-815,685000;1765795440128329;0
1290;1765795440174922;2042,040000;1765795440174919;-257,595000;1765795440174922;0
1291;1765795440175052;2229,630000;1765795440175052;-257,595000;1765795440174922;0
1292;1765795440175054;2229,630000;1765795440175052;-391,560000;1765795440175054;0
1293;1765795440175230;3192,930000;1765795440175230;-391,560000;1765795440175054;0
1294;1765795440175232;3192,930000;1765795440175230;241,215000;1765795440175232;0
1295;1765795440176428;3231,735000;1765795440176428;241,215000;1765795440175232;0
1296;1765795440176431;3231,735000;1765795440176428;222,495000;1765795440176431;0
1297;1765795440176622;3231,735000;1765795440176428;231,075000;1765795440176622;0
1298;1765795440177304;3281,655000;1765795440177304;231,075000;1765795440176622;0
1299;1765795440177306;3281,655000;1765795440177304;216,645000;1765795440177306;0
1300;1765795440177827;2851,680000;1765795440177827;216,645000;1765795440177306;0
1301;1765795440177829;2851,680000;1765795440177827;259,935000;1765795440177829;0
1302;1765795440178308;2731,950000;1765795440178308;259,935000;1765795440177829;0
1303;1765795440178310;2731,950000;1765795440178308;171,210000;1765795440178310;0
1304;1765795440178772;3214,380000;1765795440178772;171,210000;1765795440178310;0
1305;1765795440178774;3214,380000;1765795440178772;189,150000;1765795440178774;0
1306;1765795440179154;3146,715000;1765795440179154;189,150000;1765795440178774;0
1307;1765795440179155;3146,715000;1765795440179154;353,925000;1765795440179155;0
1308;1765795440179956;3005,535000;1765795440179956;353,925000;1765795440179155;0
1309;1765795440179958;3005,535000;1765795440179956;76,245000;1765795440179958;0
1310;1765795440180269;3285,750000;1765795440180269;76,245000;1765795440179958;0
1311;1765795440180271;3285,750000;1765795440180269;428,025000;1765795440180271;0
1312;1765795440181011;3448,575000;1765795440181011;428,025000;1765795440180271;0
1313;1765795440181013;3448,575000;1765795440181011;351,195000;1765795440181013;0
1314;1765795440181515;3417,765000;1765795440181515;351,195000;1765795440181013;0
1315;1765795440181517;3417,765000;1765795440181515;269,880000;1765795440181517;0
1316;1765795440182528;3380,715000;1765795440182528;269,880000;1765795440181517;0
1317;1765795440182529;3380,715000;1765795440182528;267,345000;1765795440182529;0
1318;1765795440182701;3394,950000;1765795440182701;267,345000;1765795440182529;0
1319;1765795440182702;3394,950000;1765795440182701;174,525000;1765795440182702;0
1320;1765795440183519;3627,000000;1765795440183519;299,910000;1765795440183519;0
1321;1765795440183917;3655,080000;1765795440183917;299,910000;1765795440183519;0
1322;1765795440183919;3655,080000;1765795440183917;288,990000;1765795440183919;0
1323;1765795440184344;3452,670000;1765795440184344;288,990000;1765795440183919;0
1324;1765795440184345;3452,670000;1765795440184344;-528,450000;1765795440184345;0
1325;1765795440185032;3008,460000;1765795440185032;-528,450000;1765795440184345;0
1326;1765795440185040;3008,460000;1765795440185032;-557,505000;1765795440185040;0
1327;1765795440185582;2957,760000;1765795440185582;-557,505000;1765795440185040;0
1328;1765795440185583;2957,760000;1765795440185582;-420,225000;1765795440185583;0
1329;1765795440186056;2943,135000;1765795440186056;-420,225000;1765795440185583;0
1330;1765795440186058;2943,135000;1765795440186056;-539,955000;1765795440186058;0
1331;1765795440186516;3506,490000;1765795440186516;-215,865000;1765795440186516;0
1332;1765795440187144;3009,630000;1765795440187144;-215,865000;1765795440186516;0
1333;1765795440187146;3009,630000;1765795440187144;-666,120000;1765795440187146;0
1334;1765795440234634;3394,755000;1765795440234634;-666,120000;1765795440187146;0
1335;1765795440234636;3394,755000;1765795440234634;-388,440000;1765795440234636;0
1336;1765795440234727;3502,980000;1765795440234727;-388,440000;1765795440234636;0
1337;1765795440234728;3502,980000;1765795440234727;-143,130000;1765795440234728;0
1338;1765795440235357;4016,415000;1765795440235357;-143,130000;1765795440234728;0
1339;1765795440235359;4016,415000;1765795440235357;167,115000;1765795440235359;0
1340;1765795440235812;3744,000000;1765795440235812;167,115000;1765795440235359;0
1341;1765795440235814;3744,000000;1765795440235812;276,510000;1765795440235814;0
1342;1765795440236578;3685,695000;1765795440236578;276,510000;1765795440235814;0
1343;1765795440236580;3685,695000;1765795440236578;297,180000;1765795440236580;0
1344;1765795440236963;3748,485000;1765795440236963;297,180000;1765795440236580;0
1345;1765795440236965;3748,485000;1765795440236963;290,550000;1765795440236965;0
1346;1765795440237725;3508,440000;1765795440237725;290,550000;1765795440236965;0
1347;1765795440237726;3508,440000;1765795440237725;131,820000;1765795440237726;0
1348;1765795440238101;3654,495000;1765795440238101;131,820000;1765795440237726;0
1349;1765795440238103;3654,495000;1765795440238101;365,430000;1765795440238103;0
1350;1765795440238538;3557,580000;1765795440238538;365,430000;1765795440238103;0
1351;1765795440238540;3557,580000;1765795440238538;326,430000;1765795440238540;0
1352;1765795440239374;3478,410000;1765795440239374;326,430000;1765795440238540;0
1353;1765795440239377;3478,410000;1765795440239374;142,350000;1765795440239377;0
1354;1765795440239985;2641,275000;1765795440239985;142,350000;1765795440239377;0
1355;1765795440239986;2641,275000;1765795440239985;199,680000;1765795440239986;0
1356;1765795440240577;2205,645000;1765795440240577;199,680000;1765795440239986;0
1357;1765795440240580;2205,645000;1765795440240577;233,805000;1765795440240580;0
1358;1765795440241154;2097,420000;1765795440241154;233,805000;1765795440240580;0
1359;1765795440241157;2097,420000;1765795440241154;106,470000;1765795440241157;0
1360;1765795440241869;2535,585000;1765795440241869;106,470000;1765795440241157;0
1361;1765795440241871;2535,585000;1765795440241869;342,810000;1765795440241871;0
1362;1765795440242497;1919,580000;1765795440242497;342,810000;1765795440241871;0
1363;1765795440242499;1919,580000;1765795440242497;-16,185000;1765795440242499;0
1364;1765795440242858;2270,385000;1765795440242858;-16,185000;1765795440242499;0
1365;1765795440242859;2270,385000;1765795440242858;70,005000;1765795440242859;0
1366;1765795440243438;2305,485000;1765795440243438;70,005000;1765795440242859;0
1367;1765795440243439;2305,485000;1765795440243438;93,210000;1765795440243439;0
1368;1765795440243879;2557,035000;1765795440243879;93,210000;1765795440243439;0
1369;1765795440243880;2557,035000;1765795440243879;172,965000;1765795440243880;0
1370;1765795440244397;1314,495000;1765795440244397;-605,670000;1765795440244397;0
1371;1765795440245120;1838,850000;1765795440245120;-605,670000;1765795440244397;0
1372;1765795440245123;1838,850000;1765795440245120;-641,940000;1765795440245123;0
1373;1765795440245466;1311,180000;1765795440245466;-641,940000;1765795440245123;0
1374;1765795440245467;1311,180000;1765795440245466;-490,230000;1765795440245467;0
1375;1765795440246005;1820,325000;1765795440246005;-490,230000;1765795440245467;0
1376;1765795440246006;1820,325000;1765795440246005;-592,605000;1765795440246006;0
1377;1765795440246586;1767,675000;1765795440246586;-592,605000;1765795440246006;0
1378;1765795440246591;1767,675000;1765795440246586;-617,370000;1765795440246591;0
1379;1765795440247212;1767,675000;1765795440246586;-653,640000;1765795440247212;0
1380;1765795440247836;1465,815000;1765795440247836;-653,640000;1765795440247212;0
1381;1765795440247837;1465,815000;1765795440247836;-829,920000;1765795440247837;0
1382;1765795440294524;1717,950000;1765795440294524;-829,920000;1765795440247837;0
1383;1765795440294526;1717,950000;1765795440294524;-132,795000;1765795440294526;0
1384;1765795440294656;2119,650000;1765795440294656;-132,795000;1765795440294526;0
1385;1765795440294657;2119,650000;1765795440294656;155,025000;1765795440294657;0
1386;1765795440295556;2185,560000;1765795440295556;155,025000;1765795440294657;0
1387;1765795440295557;2185,560000;1765795440295556;136,110000;1765795440295557;0
1388;1765795440295800;2185,560000;1765795440295556;218,205000;1765795440295800;0
1389;1765795440296604;2429,895000;1765795440296604;218,205000;1765795440295800;0
1390;1765795440296606;2429,895000;1765795440296604;278,655000;1765795440296606;0
1391;1765795440297015;2394,015000;1765795440297015;278,655000;1765795440296606;0
1392;1765795440297016;2394,015000;1765795440297015;325,455000;1765795440297016;0
1393;1765795440297535;2183,805000;1765795440297535;325,455000;1765795440297016;0
1394;1765795440297536;2183,805000;1765795440297535;116,415000;1765795440297536;0
1395;1765795440298026;2433,990000;1765795440298026;116,415000;1765795440297536;0
1396;1765795440298027;2433,990000;1765795440298026;394,485000;1765795440298027;0
1397;1765795440298923;1854,645000;1765795440298923;394,485000;1765795440298027;0
1398;1765795440298925;1854,645000;1765795440298923;33,345000;1765795440298925;0
1399;1765795440299388;1812,915000;1765795440299388;33,345000;1765795440298925;0
1400;1765795440299391;1812,915000;1765795440299388;114,270000;1765795440299391;0
1401;1765795440299920;1978,080000;1765795440299920;114,270000;1765795440299391;0
1402;1765795440299921;1978,080000;1765795440299920;173,355000;1765795440299921;0
1403;1765795440301849;1588,860000;1765795440301849;173,355000;1765795440299921;0
1404;1765795440301851;1588,860000;1765795440301849;132,600000;1765795440301851;0
1405;1765795440301988;1560,390000;1765795440301988;132,600000;1765795440301851;0
1406;1765795440301989;1560,390000;1765795440301988;126,360000;1765795440301989;0
1407;1765795440302934;1664,130000;1765795440302934;126,360000;1765795440301989;0
1408;1765795440302935;1664,130000;1765795440302934;197,730000;1765795440302935;0
1409;1765795440303045;1471,470000;1765795440303045;197,730000;1765795440302935;0
1410;1765795440303046;1471,470000;1765795440303045;47,580000;1765795440303046;0
1411;1765795440303742;1703,715000;1765795440303742;47,580000;1765795440303046;0
1412;1765795440303743;1703,715000;1765795440303742;286,845000;1765795440303743;0
1413;1765795440303931;1451,580000;1765795440303931;-14,625000;1765795440303931;0
1414;1765795440304430;408,135000;1765795440304430;-14,625000;1765795440303931;0
1415;1765795440304431;408,135000;1765795440304430;-616,005000;1765795440304431;0
1416;1765795440305012;613,470000;1765795440305012;-616,005000;1765795440304431;0
1417;1765795440305014;613,470000;1765795440305012;-296,010000;1765795440305014;0
1418;1765795440305878;206,505000;1765795440305878;-296,010000;1765795440305014;0
1419;1765795440305881;206,505000;1765795440305878;-156,390000;1765795440305881;0
1420;1765795440306505;72,540000;1765795440306505;-156,390000;1765795440305881;0
1421;1765795440306509;72,540000;1765795440306505;-597,480000;1765795440306509;0
1422;1765795440307028;-166,335000;1765795440307028;-597,480000;1765795440306509;0
1423;1765795440307031;-166,335000;1765795440307028;-416,910000;1765795440307031;0
1424;1765795440354739;-369,135000;1765795440354739;-416,910000;1765795440307031;0
1425;1765795440354742;-369,135000;1765795440354739;-694,980000;1765795440354742;0
1426;1765795440354890;-33,540000;1765795440354890;-694,980000;1765795440354742;0
1427;1765795440354892;-33,540000;1765795440354890;-221,130000;1765795440354892;0
1428;1765795440355278;454,935000;1765795440355278;-221,130000;1765795440354892;0
1429;1765795440355280;454,935000;1765795440355278;115,830000;1765795440355280;0
1430;1765795440356688;198,705000;1765795440356688;115,830000;1765795440355280;0
1431;1765795440356693;198,705000;1765795440356688;171,015000;1765795440356693;0
1432;1765795440357312;300,495000;1765795440357312;171,015000;1765795440356693;0
1433;1765795440357315;300,495000;1765795440357312;203,580000;1765795440357315;0
1434;1765795440358601;170,430000;1765795440358601;203,580000;1765795440357315;0
1435;1765795440358606;170,430000;1765795440358601;162,240000;1765795440358606;0
1436;1765795440359146;-145,860000;1765795440359146;162,240000;1765795440358606;0
1437;1765795440359151;-145,860000;1765795440359146;134,940000;1765795440359151;0
1438;1765795440359563;-304,005000;1765795440359563;134,940000;1765795440359151;0
1439;1765795440359568;-304,005000;1765795440359563;219,180000;1765795440359568;0
1440;1765795440360088;26,910000;1765795440360088;219,180000;1765795440359568;0
1441;1765795440360090;26,910000;1765795440360088;345,540000;1765795440360090;0
1442;1765795440360515;-267,930000;1765795440360515;345,540000;1765795440360090;0
1443;1765795440360518;-267,930000;1765795440360515;165,555000;1765795440360518;0
1444;1765795440361269;-170,625000;1765795440361269;165,555000;1765795440360518;0
1445;1765795440361273;-170,625000;1765795440361269;341,055000;1765795440361273;0
1446;1765795440361482;-386,490000;1765795440361482;341,055000;1765795440361273;0
1447;1765795440361486;-386,490000;1765795440361482;179,985000;1765795440361486;0
1448;1765795440362003;-690,690000;1765795440362003;179,985000;1765795440361486;0
1449;1765795440362007;-690,690000;1765795440362003;79,170000;1765795440362007;0
1450;1765795440362868;-465,855000;1765795440362868;79,170000;1765795440362007;0
1451;1765795440362871;-465,855000;1765795440362868;103,740000;1765795440362871;0
1452;1765795440363222;-465,855000;1765795440362868;-4,485000;1765795440363222;0
1453;1765795440363614;-749,775000;1765795440363614;-4,485000;1765795440363222;0
1454;1765795440363617;-749,775000;1765795440363614;85,215000;1765795440363617;0
1455;1765795440364422;-1008,735000;1765795440364422;85,215000;1765795440363617;0
1456;1765795440364425;-1008,735000;1765795440364422;32,955000;1765795440364425;0
1457;1765795440364820;-1008,735000;1765795440364422;-834,600000;1765795440364820;0
1458;1765795440365416;-1763,970000;1765795440365416;-834,600000;1765795440364820;0
1459;1765795440365419;-1763,970000;1765795440365416;-270,660000;1765795440365419;0
1460;1765795440366021;-2302,950000;1765795440366021;-270,660000;1765795440365419;0
1461;1765795440366024;-2302,950000;1765795440366021;-751,140000;1765795440366024;0
1462;1765795440366190;-2223,585000;1765795440366190;-751,140000;1765795440366024;0
1463;1765795440366191;-2223,585000;1765795440366190;-523,770000;1765795440366191;0
1464;1765795440366780;-2007,330000;1765795440366780;-523,770000;1765795440366191;0
1465;1765795440366781;-2007,330000;1765795440366780;-717,795000;1765795440366781;0
1466;1765795440366984;-2007,330000;1765795440366780;-867,945000;1765795440366984;0
1467;1765795440367934;-2344,290000;1765795440367934;-867,945000;1765795440366984;0
1468;1765795440367937;-2344,290000;1765795440367934;-801,450000;1765795440367937;0
1469;1765795440414621;-2344,290000;1765795440414621;-801,450000;1765795440367937;0
1470;1765795440414623;-2344,290000;1765795440414621;-209,040000;1765795440414623;0
1471;1765795440414804;-1693,770000;1765795440414804;-209,040000;1765795440414623;0
1472;1765795440414805;-1693,770000;1765795440414804;17,550000;1765795440414805;0
1473;1765795440415324;-1765,140000;1765795440415324;17,550000;1765795440414805;0
1474;1765795440415325;-1765,140000;1765795440415324;133,575000;1765795440415325;0
1475;1765795440415874;-1614,210000;1765795440415874;133,575000;1765795440415325;0
1476;1765795440415876;-1614,210000;1765795440415874;378,495000;1765795440415876;0
1477;1765795440421441;-1897,155000;1765795440421441;378,495000;1765795440415876;0
1478;1765795440421444;-1897,155000;1765795440421441;157,170000;1765795440421444;0
1479;1765795440422413;-2060,760000;1765795440422413;157,170000;1765795440421444;0
1480;1765795440422416;-2060,760000;1765795440422413;35,295000;1765795440422416;0
1481;1765795440422782;-1908,465000;1765795440422782;35,295000;1765795440422416;0
1482;1765795440422787;-1908,465000;1765795440422782;195,975000;1765795440422787;0
1483;1765795440423254;-2148,900000;1765795440423254;195,975000;1765795440422787;0
1484;1765795440423257;-2148,900000;1765795440423254;89,310000;1765795440423257;0
1485;1765795440423518;-2231,970000;1765795440423518;89,310000;1765795440423257;0
1486;1765795440423523;-2231,970000;1765795440423518;186,225000;1765795440423523;0
1487;1765795440425457;-2336,685000;1765795440425457;186,225000;1765795440423523;0
1488;1765795440425461;-2336,685000;1765795440425457;181,935000;1765795440425461;0
1489;1765795440425894;-2250,690000;1765795440425894;181,935000;1765795440425461;0
