Index;Time_us;Ch1_val_uV;Ch1_ts_us;Ch2_val_uV;Ch2_ts_us;StimState
0;1765535191535695;-1882,725000;1765535191535695;;;0
1;1765535191535697;-1882,725000;1765535191535695;-89,310000;1765535191535697;0
2;1765535191535698;-1372,020000;1765535191535698;-89,310000;1765535191535697;0
3;1765535191535699;-1517,685000;1765535191535699;347,490000;1765535191535699;0
4;1765535191535700;-1720,290000;1765535191535700;185,055000;1765535191535700;0
5;1765535191535701;-1792,050000;1765535191535701;185,055000;1765535191535700;0
6;1765535191535702;-1636,635000;1765535191535702;178,815000;1765535191535702;0
7;1765535191535703;-1679,925000;1765535191535703;-148,590000;1765535191535703;0
8;1765535191535704;-3111,615000;1765535191535704;-1158,690000;1765535191535704;0
9;1765535191535705;-2096,835000;1765535191535705;-963,300000;1765535191535705;0
10;1765535191535706;-2908,425000;1765535191535706;-443,040000;1765535191535706;0
11;1765535191535707;-2766,270000;1765535191535707;-1108,770000;1765535191535707;0
12;1765535191535708;-1817,010000;1765535191535708;-283,335000;1765535191535708;0
13;1765535191535709;-1276,470000;1765535191535709;332,865000;1765535191535709;0
14;1765535191535710;-1177,605000;1765535191535710;441,285000;1765535191535710;0
15;1765535191535711;-1335,360000;1765535191535711;374,205000;1765535191535711;0
16;1765535191535712;-1512,030000;1765535191535712;264,810000;1765535191535712;0
17;1765535191535713;-1427,205000;1765535191535713;328,575000;1765535191535713;0
18;1765535191535714;-1389,375000;1765535191535714;304,005000;1765535191535714;0
19;1765535191535715;-1409,460000;1765535191535715;212,160000;1765535191535715;0
20;1765535191535716;-1627,470000;1765535191535716;320,190000;1765535191535716;0
21;1765535191535717;-1590,225000;1765535191535717;291,135000;1765535191535717;0
22;1765535191535721;-1469,325000;1765535191535721;276,900000;1765535191535721;0
23;1765535191535722;-1353,300000;1765535191535722;432,705000;1765535191535722;0
24;1765535191535723;-1460,940000;1765535191535723;438,750000;1765535191535723;0
25;1765535191535724;-1335,165000;1765535191535724;403,650000;1765535191535724;0
26;1765535191535725;-1570,725000;1765535191535725;366,015000;1765535191535725;0
27;1765535191535726;-1571,505000;1765535191535726;270,270000;1765535191535726;0
28;1765535191535727;-1400,100000;1765535191535727;447,135000;1765535191535727;0
29;1765535191535728;-1850,745000;1765535191535728;447,135000;1765535191535727;0
30;1765535191535729;-1698,450000;1765535191535729;167,895000;1765535191535729;0
31;1765535191535730;-1445,730000;1765535191535730;226,590000;1765535191535730;0
32;1765535191535731;-1309,425000;1765535191535731;360,360000;1765535191535731;0
33;1765535191595472;-3926,325000;1765535191595472;360,360000;1765535191535731;0
34;1765535191595473;-3926,325000;1765535191595472;-54,405000;1765535191595473;0
35;1765535191595474;-1748,955000;1765535191595474;250,575000;1765535191595474;0
36;1765535191595475;-1638,585000;1765535191595475;250,575000;1765535191595474;0
37;1765535191595476;-1540,110000;1765535191595476;369,135000;1765535191595476;0
38;1765535191595477;-1705,665000;1765535191595477;312,780000;1765535191595477;0
39;1765535191595478;-1734,720000;1765535191595478;251,745000;1765535191595478;0
40;1765535191595479;-1717,950000;1765535191595479;261,690000;1765535191595479;0
41;1765535191595480;-1830,270000;1765535191595480;220,935000;1765535191595480;0
42;1765535191595481;-1781,520000;1765535191595481;236,340000;1765535191595481;0
43;1765535191595482;-1812,915000;1765535191595482;220,545000;1765535191595482;0
44;1765535191595483;-1680,900000;1765535191595483;210,990000;1765535191595483;0
45;1765535191595484;-1885,650000;1765535191595484;316,095000;1765535191595484;0
46;1765535191595485;-1793,610000;1765535191595485;212,550000;1765535191595485;0
47;1765535191595486;-1768,845000;1765535191595486;109,005000;1765535191595486;0
48;1765535191595487;-2853,825000;1765535191595487;-1130,610000;1765535191595487;0
49;1765535191595488;-666,510000;1765535191595488;-141,375000;1765535191595488;0
50;1765535191595489;-924,690000;1765535191595489;427,830000;1765535191595489;0
51;1765535191595490;-900,705000;1765535191595490;226,980000;1765535191595490;0
52;1765535191595491;-900,705000;1765535191595490;200,070000;1765535191595491;0
53;1765535191595492;-861,120000;1765535191595492;299,325000;1765535191595492;0
54;1765535191595493;-825,435000;1765535191595493;206,895000;1765535191595493;0
55;1765535191595494;-1057,290000;1765535191595494;322,530000;1765535191595494;0
56;1765535191595495;-976,950000;1765535191595495;278,460000;1765535191595495;0
57;1765535191595496;-1181,505000;1765535191595496;189,735000;1765535191595496;0
58;1765535191595497;-1166,685000;1765535191595497;226,200000;1765535191595497;0
59;1765535191595498;-1125,540000;1765535191595498;341,835000;1765535191595498;0
60;1765535191595499;-1125,540000;1765535191595498;229,710000;1765535191595499;0
61;1765535191595500;-1152,840000;1765535191595500;163,800000;1765535191595500;0
62;1765535191654909;-3924,570000;1765535191654909;163,800000;1765535191595500;0
63;1765535191654911;-3924,570000;1765535191654909;13,260000;1765535191654911;0
64;1765535191654912;-1464,450000;1765535191654912;13,260000;1765535191654911;0
65;1765535191654913;-1130,025000;1765535191654913;51,675000;1765535191654913;0
66;1765535191654914;-1295,775000;1765535191654914;322,530000;1765535191654914;0
67;1765535191654915;-1138,995000;1765535191654915;194,220000;1765535191654915;0
68;1765535191654916;-1196,130000;1765535191654916;171,210000;1765535191654916;0
69;1765535191654917;-1265,160000;1765535191654917;241,020000;1765535191654917;0
70;1765535191654918;-1265,160000;1765535191654917;181,350000;1765535191654918;0
71;1765535191654919;-1357,200000;1765535191654919;265,785000;1765535191654919;0
72;1765535191654920;-1351,350000;1765535191654920;316,095000;1765535191654920;0
73;1765535191654921;-1388,595000;1765535191654921;325,455000;1765535191654921;0
74;1765535191654922;-1158,300000;1765535191654922;267,735000;1765535191654922;0
75;1765535191654923;-1162,590000;1765535191654923;181,935000;1765535191654923;0
76;1765535191654924;-1162,590000;1765535191654923;313,950000;1765535191654924;0
77;1765535191654925;-1374,945000;1765535191654925;276,510000;1765535191654925;0
78;1765535191654926;-1252,095000;1765535191654926;282,750000;1765535191654926;0
79;1765535191654927;-1383,720000;1765535191654927;224,640000;1765535191654927;0
80;1765535191654928;-1465,230000;1765535191654928;196,950000;1765535191654928;0
81;1765535191654929;-1387,425000;1765535191654929;164,385000;1765535191654929;0
82;1765535191654930;-1281,930000;1765535191654930;244,335000;1765535191654930;0
83;1765535191654931;-1281,930000;1765535191654930;138,060000;1765535191654931;0
84;1765535191654932;-1271,010000;1765535191654932;169,455000;1765535191654932;0
85;1765535191654933;-1434,420000;1765535191654933;109,005000;1765535191654933;0
86;1765535191654934;-1499,940000;1765535191654934;189,345000;1765535191654934;0
87;1765535191654935;-1474,980000;1765535191654935;91,845000;1765535191654935;0
88;1765535191654936;-1538,355000;1765535191654936;121,290000;1765535191654936;0
89;1765535191654937;-942,045000;1765535191654937;416,325000;1765535191654937;0
90;1765535191654938;-1227,330000;1765535191654938;303,615000;1765535191654938;0
91;1765535191654939;-1333,605000;1765535191654939;163,020000;1765535191654939;0
92;1765535191654940;-2148,315000;1765535191654940;-182,715000;1765535191654940;0
93;1765535191654941;-1815,060000;1765535191654941;-1074,255000;1765535191654941;0
94;1765535191654942;-700,635000;1765535191654942;-924,690000;1765535191654942;0
95;1765535191654943;-286,260000;1765535191654943;-20,865000;1765535191654943;0
96;1765535191654944;-389,025000;1765535191654944;227,760000;1765535191654944;0
97;1765535191658200;-3919,305000;1765535191658200;227,760000;1765535191654944;0
98;1765535191658201;-3919,305000;1765535191658200;53,235000;1765535191658201;0
99;1765535191658202;-46,605000;1765535191658202;279,825000;1765535191658202;0
100;1765535191658203;87,165000;1765535191658203;281,190000;1765535191658203;0
101;1765535191658204;350,220000;1765535191658204;391,365000;1765535191658204;0
102;1765535191658205;242,775000;1765535191658205;236,535000;1765535191658205;0
103;1765535191658206;434,070000;1765535191658206;304,005000;1765535191658206;0
104;1765535191658207;386,490000;1765535191658207;383,565000;1765535191658207;0
105;1765535191658208;678,990000;1765535191658208;267,150000;1765535191658208;0
106;1765535191658209;678,990000;1765535191658208;390,780000;1765535191658209;0
107;1765535191658210;467,805000;1765535191658210;331,110000;1765535191658210;0
108;1765535191658211;459,420000;1765535191658211;283,335000;1765535191658211;0
109;1765535191658212;504,270000;1765535191658212;297,570000;1765535191658212;0
110;1765535191658213;787,410000;1765535191658213;452,790000;1765535191658213;0
111;1765535191658214;569,790000;1765535191658214;274,950000;1765535191658214;0
112;1765535191658215;420,225000;1765535191658215;220,350000;1765535191658215;0
113;1765535191658216;766,350000;1765535191658216;275,535000;1765535191658216;0
114;1765535191658217;709,215000;1765535191658217;319,020000;1765535191658217;0
115;1765535191658218;772,785000;1765535191658218;232,635000;1765535191658218;0
116;1765535191658219;858,390000;1765535191658219;272,415000;1765535191658219;0
117;1765535191658220;944,385000;1765535191658220;346,515000;1765535191658220;0
118;1765535191658221;790,335000;1765535191658221;247,455000;1765535191658221;0
119;1765535191658222;744,510000;1765535191658222;120,510000;1765535191658222;0
120;1765535191658223;985,530000;1765535191658223;157,950000;1765535191658223;0
121;1765535191658224;941,655000;1765535191658224;197,535000;1765535191658224;0
122;1765535191658225;1018,290000;1765535191658225;206,895000;1765535191658225;0
123;1765535191658226;987,285000;1765535191658226;227,955000;1765535191658226;0
124;1765535191658227;1270,815000;1765535191658227;320,190000;1765535191658227;0
125;1765535191658228;1380,795000;1765535191658228;320,190000;1765535191658227;0
126;1765535191658229;1253,265000;1765535191658229;283,140000;1765535191658229;0
127;1765535191658230;988,065000;1765535191658230;283,140000;1765535191658229;0
128;1765535191658231;1540,695000;1765535191658231;391,950000;1765535191658231;0
129;1765535191658232;1326,195000;1765535191658232;244,335000;1765535191658232;0
130;1765535191658233;1513,395000;1765535191658233;387,855000;1765535191658233;0
131;1765535191658234;1567,215000;1765535191658234;387,855000;1765535191658233;0
132;1765535191658235;1412,190000;1765535191658235;347,100000;1765535191658235;0
133;1765535191658236;1341,405000;1765535191658236;250,770000;1765535191658236;0
134;1765535191658237;1476,345000;1765535191658237;145,080000;1765535191658237;0
135;1765535191658238;1476,345000;1765535191658237;130,845000;1765535191658238;0
136;1765535191775376;-3918,525000;1765535191775376;130,845000;1765535191658238;0
137;1765535191775381;-3918,525000;1765535191775376;-1237,860000;1765535191775381;0
138;1765535191775382;1352,910000;1765535191775382;-1237,860000;1765535191775381;0
139;1765535191775383;1352,910000;1765535191775382;-92,625000;1765535191775383;0
140;1765535191775385;138,255000;1765535191775385;-92,625000;1765535191775383;0
141;1765535191775386;138,255000;1765535191775385;-1181,505000;1765535191775386;0
142;1765535191775387;256,035000;1765535191775387;-1181,505000;1765535191775386;0
143;1765535191775388;256,035000;1765535191775387;-983,970000;1765535191775388;0
144;1765535191775389;1532,895000;1765535191775389;-983,970000;1765535191775388;0
145;1765535191775390;1532,895000;1765535191775389;-93,990000;1765535191775390;0
146;1765535191775391;2013,375000;1765535191775391;290,550000;1765535191775391;0
147;1765535191775392;1802,190000;1765535191775392;290,550000;1765535191775391;0
148;1765535191775393;1802,190000;1765535191775392;141,765000;1765535191775393;0
149;1765535191775394;2069,535000;1765535191775394;141,765000;1765535191775393;0
150;1765535191775395;2069,535000;1765535191775394;365,040000;1765535191775395;0
151;1765535191775396;2086,110000;1765535191775396;381,030000;1765535191775396;0
152;1765535191775398;1847,235000;1765535191775398;381,030000;1765535191775396;0
153;1765535191775399;1847,235000;1765535191775398;218,010000;1765535191775399;0
154;1765535191775400;1784,055000;1765535191775400;218,010000;1765535191775399;0
155;1765535191775401;1784,055000;1765535191775400;128,895000;1765535191775401;0
156;1765535191775402;1755,780000;1765535191775402;166,725000;1765535191775402;0
157;1765535191775403;1836,705000;1765535191775403;166,725000;1765535191775402;0
158;1765535191775404;1836,705000;1765535191775403;193,245000;1765535191775404;0
159;1765535191775405;2106,000000;1765535191775405;193,245000;1765535191775404;0
160;1765535191775406;2106,000000;1765535191775405;334,815000;1765535191775406;0
161;1765535191775408;2260,830000;1765535191775408;334,815000;1765535191775406;0
162;1765535191775409;2260,830000;1765535191775408;338,520000;1765535191775409;0
163;1765535191775410;1938,300000;1765535191775410;198,510000;1765535191775410;0
164;1765535191775411;1938,300000;1765535191775410;465,075000;1765535191775411;0
165;1765535191775413;2387,775000;1765535191775413;465,075000;1765535191775411;0
166;1765535191775414;2387,775000;1765535191775413;430,170000;1765535191775414;0
167;1765535191775415;2222,025000;1765535191775415;430,170000;1765535191775414;0
168;1765535191775416;2222,025000;1765535191775415;337,740000;1765535191775416;0
169;1765535191775417;1839,630000;1765535191775417;337,740000;1765535191775416;0
170;1765535191775418;2071,485000;1765535191775418;194,415000;1765535191775418;0
171;1765535191775419;2071,485000;1765535191775418;307,710000;1765535191775419;0
172;1765535191775420;2070,510000;1765535191775420;307,710000;1765535191775419;0
173;1765535191775421;2070,510000;1765535191775420;262,860000;1765535191775421;0
174;1765535191775422;2175,615000;1765535191775422;273,585000;1765535191775422;0
175;1765535191775423;2269,410000;1765535191775423;273,585000;1765535191775422;0
176;1765535191775424;2269,410000;1765535191775423;285,870000;1765535191775424;0
177;1765535191775425;2269,410000;1765535191775423;438,555000;1765535191775425;0
178;1765535191775426;2386,800000;1765535191775426;438,555000;1765535191775425;0
179;1765535191775427;2386,800000;1765535191775426;349,635000;1765535191775427;0
180;1765535191775428;2364,765000;1765535191775428;349,635000;1765535191775427;0
181;1765535191775429;2256,735000;1765535191775429;370,305000;1765535191775429;0
182;1765535191775430;2256,735000;1765535191775429;281,385000;1765535191775430;0
183;1765535191775431;2267,265000;1765535191775431;281,385000;1765535191775430;0
184;1765535191775432;2198,625000;1765535191775432;259,935000;1765535191775432;0
185;1765535191775433;2198,625000;1765535191775432;186,225000;1765535191775433;0
186;1765535191775434;2484,300000;1765535191775434;186,225000;1765535191775433;0
187;1765535191775435;2484,300000;1765535191775434;363,675000;1765535191775435;0
188;1765535191775436;2272,140000;1765535191775436;216,255000;1765535191775436;0
189;1765535191775437;2272,140000;1765535191775436;233,610000;1765535191775437;0
190;1765535191775438;2432,430000;1765535191775438;233,610000;1765535191775437;0
191;1765535191775439;2432,430000;1765535191775438;346,125000;1765535191775439;0
192;1765535191775440;2357,550000;1765535191775440;307,710000;1765535191775440;0
193;1765535191775441;2604,030000;1765535191775441;307,710000;1765535191775440;0
194;1765535191775442;2604,030000;1765535191775441;253,500000;1765535191775442;0
195;1765535191775443;2518,620000;1765535191775443;277,680000;1765535191775443;0
196;1765535191775444;2412,540000;1765535191775444;277,680000;1765535191775443;0
197;1765535191775445;2412,540000;1765535191775444;276,510000;1765535191775445;0
198;1765535191775446;2467,335000;1765535191775446;246,285000;1765535191775446;0
199;1765535191775447;2373,150000;1765535191775447;246,285000;1765535191775446;0
200;1765535191775448;2373,150000;1765535191775447;202,215000;1765535191775448;0
201;1765535191778295;2529,150000;1765535191778295;202,215000;1765535191775448;0
202;1765535191778296;2883,270000;1765535191778296;73,905000;1765535191778296;0
203;1765535191778297;2883,270000;1765535191778296;300,300000;1765535191778297;0
204;1765535191778298;2786,550000;1765535191778298;290,550000;1765535191778298;0
205;1765535191778299;2938,260000;1765535191778299;258,375000;1765535191778299;0
206;1765535191778300;2630,940000;1765535191778300;373,815000;1765535191778300;0
207;1765535191778301;2940,990000;1765535191778301;301,470000;1765535191778301;0
208;1765535191778302;2861,430000;1765535191778302;375,180000;1765535191778302;0
209;1765535191778303;2635,425000;1765535191778303;248,430000;1765535191778303;0
210;1765535191778304;2872,155000;1765535191778304;400,140000;1765535191778304;0
211;1765535191778305;2834,715000;1765535191778305;345,345000;1765535191778305;0
212;1765535191778306;2960,295000;1765535191778306;322,725000;1765535191778306;0
213;1765535191778307;2638,935000;1765535191778307;-7,410000;1765535191778307;0
214;1765535191778308;2602,860000;1765535191778308;127,920000;1765535191778308;0
215;1765535191778309;2959,320000;1765535191778309;284,310000;1765535191778309;0
216;1765535191778310;3179,085000;1765535191778310;270,465000;1765535191778310;0
217;1765535191778311;1088,880000;1765535191778311;197,535000;1765535191778311;0
218;1765535191778312;975,390000;1765535191778312;160,095000;1765535191778312;0
219;1765535191778313;1383,525000;1765535191778313;91,455000;1765535191778313;0
220;1765535191778314;1213,680000;1765535191778314;259,935000;1765535191778314;0
221;1765535191778315;1268,670000;1765535191778315;256,815000;1765535191778315;0
222;1765535191778316;1158,885000;1765535191778316;58,695000;1765535191778316;0
223;1765535191778317;1034,670000;1765535191778317;160,290000;1765535191778317;0
224;1765535191778318;1052,610000;1765535191778318;125,970000;1765535191778318;0
225;1765535191778319;1448,070000;1765535191778319;294,255000;1765535191778319;0
226;1765535191778320;1293,630000;1765535191778320;192,270000;1765535191778320;0
227;1765535191778321;1370,850000;1765535191778321;135,135000;1765535191778321;0
228;1765535191778322;1430,325000;1765535191778322;278,460000;1765535191778322;0
229;1765535191778323;1752,855000;1765535191778323;355,680000;1765535191778323;0
230;1765535191778324;1488,435000;1765535191778324;233,025000;1765535191778324;0
231;1765535191895351;-3912,285000;1765535191895351;233,025000;1765535191778324;0
232;1765535191895353;-3912,285000;1765535191895351;31,980000;1765535191895353;0
233;1765535191895354;1703,910000;1765535191895354;31,980000;1765535191895353;0
234;1765535191895355;1717,950000;1765535191895355;160,095000;1765535191895355;0
235;1765535191895356;1833,975000;1765535191895356;192,075000;1765535191895356;0
236;1765535191895357;1831,635000;1765535191895357;172,770000;1765535191895357;0
237;1765535191895358;2169,375000;1765535191895358;3,510000;1765535191895358;0
238;1765535191895359;2018,250000;1765535191895359;312,780000;1765535191895359;0
239;1765535191895360;1903,005000;1765535191895360;157,755000;1765535191895360;0
240;1765535191895361;1998,750000;1765535191895361;372,255000;1765535191895361;0
241;1765535191895362;1441,050000;1765535191895362;231,270000;1765535191895362;0
242;1765535191895363;1414,335000;1765535191895363;115,635000;1765535191895363;0
243;1765535191895364;1805,115000;1765535191895364;403,650000;1765535191895364;0
244;1765535191895365;1449,240000;1765535191895365;66,690000;1765535191895365;0
245;1765535191895366;1708,785000;1765535191895366;362,895000;1765535191895366;0
246;1765535191895367;1761,435000;1765535191895367;257,400000;1765535191895367;0
247;1765535191895368;1642,680000;1765535191895368;236,925000;1765535191895368;0
248;1765535191895369;1673,295000;1765535191895369;128,895000;1765535191895369;0
249;1765535191895370;1788,150000;1765535191895370;217,815000;1765535191895370;0
250;1765535191895371;1549,470000;1765535191895371;188,760000;1765535191895371;0
251;1765535191895372;1555,905000;1765535191895372;168,675000;1765535191895372;0
252;1765535191895373;1712,880000;1765535191895373;142,935000;1765535191895373;0
253;1765535191895374;1837,680000;1765535191895374;248,040000;1765535191895374;0
254;1765535191895375;1369,095000;1765535191895375;-423,345000;1765535191895375;0
255;1765535191895376;302,055000;1765535191895376;-1075,035000;1765535191895376;0
256;1765535191895377;291,525000;1765535191895377;-1075,035000;1765535191895376;0
257;1765535191895378;1333,410000;1765535191895378;-1083,810000;1765535191895378;0
258;1765535191895379;285,870000;1765535191895379;-1168,830000;1765535191895379;0
259;1765535191895380;1319,955000;1765535191895380;-1099,410000;1765535191895380;0
260;1765535191895381;1730,625000;1765535191895381;171,600000;1765535191895381;0
261;1765535191895382;1856,205000;1765535191895382;216,645000;1765535191895382;0
262;1765535191895383;1958,190000;1765535191895383;167,505000;1765535191895383;0
263;1765535191895384;1996,800000;1765535191895384;210,990000;1765535191895384;0
264;1765535191895385;1811,160000;1765535191895385;131,040000;1765535191895385;0
265;1765535191895386;1568,190000;1765535191895386;206,700000;1765535191895386;0
266;1765535191895387;1568,190000;1765535191895386;148,590000;1765535191895387;0
267;1765535191898014;-3912,090000;1765535191898014;148,590000;1765535191895387;0
268;1765535191898017;-3912,090000;1765535191898014;-34,515000;1765535191898017;0
269;1765535191898018;1863,225000;1765535191898018;-34,515000;1765535191898017;0
270;1765535191898019;1863,225000;1765535191898018;241,800000;1765535191898019;0
271;1765535191898020;2256,540000;1765535191898020;241,800000;1765535191898019;0
272;1765535191898021;2256,540000;1765535191898020;396,630000;1765535191898021;0
273;1765535191898022;1820,325000;1765535191898022;396,630000;1765535191898021;0
274;1765535191898023;2120,430000;1765535191898023;228,930000;1765535191898023;0
275;1765535191898024;2120,430000;1765535191898023;328,380000;1765535191898024;0
276;1765535191898025;2049,255000;1765535191898025;328,380000;1765535191898024;0
277;1765535191898026;2189,070000;1765535191898026;226,005000;1765535191898026;0
278;1765535191898027;2189,070000;1765535191898026;340,275000;1765535191898027;0
279;1765535191898028;1859,520000;1765535191898028;66,300000;1765535191898028;0
280;1765535191898029;2167,815000;1765535191898029;66,300000;1765535191898028;0
281;1765535191898030;2075,775000;1765535191898030;273,585000;1765535191898030;0
282;1765535191898031;2075,775000;1765535191898030;207,675000;1765535191898031;0
283;1765535191898033;1976,325000;1765535191898033;166,725000;1765535191898033;0
284;1765535191898034;2058,810000;1765535191898034;166,725000;1765535191898033;0
285;1765535191898035;2259,075000;1765535191898035;166,530000;1765535191898035;0
286;1765535191898036;2259,075000;1765535191898035;266,565000;1765535191898036;0
287;1765535191898037;2073,630000;1765535191898037;339,105000;1765535191898037;0
288;1765535191898038;2123,355000;1765535191898038;253,695000;1765535191898038;0
289;1765535191898039;2134,860000;1765535191898039;253,695000;1765535191898038;0
290;1765535191898040;1883,895000;1765535191898040;342,615000;1765535191898040;0
291;1765535191898041;1883,895000;1765535191898040;221,325000;1765535191898041;0
292;1765535191898042;2054,715000;1765535191898042;221,325000;1765535191898041;0
293;1765535191898043;2054,715000;1765535191898042;282,750000;1765535191898043;0
294;1765535191898044;1962,285000;1765535191898044;282,750000;1765535191898043;0
295;1765535191898045;1962,285000;1765535191898044;240,630000;1765535191898045;0
296;1765535191898046;1997,775000;1765535191898046;207,285000;1765535191898046;0
297;1765535191898047;2147,340000;1765535191898047;207,285000;1765535191898046;0
298;1765535191898048;2147,340000;1765535191898047;292,695000;1765535191898048;0
299;1765535191898049;2125,695000;1765535191898049;376,740000;1765535191898049;0
300;1765535191898050;2004,015000;1765535191898050;376,740000;1765535191898049;0
301;1765535191898051;2004,015000;1765535191898050;134,940000;1765535191898051;0
302;1765535191898052;2202,720000;1765535191898052;134,940000;1765535191898051;0
303;1765535191898053;1710,735000;1765535191898053;258,765000;1765535191898053;0
304;1765535191898054;1710,735000;1765535191898053;177,255000;1765535191898054;0
305;1765535191898055;1832,025000;1765535191898055;177,255000;1765535191898054;0
306;1765535191898056;1832,025000;1765535191898055;272,220000;1765535191898056;0
307;1765535191898058;1433,055000;1765535191898058;272,220000;1765535191898056;0
308;1765535191898059;1593,345000;1765535191898059;284,895000;1765535191898059;0
309;1765535191898060;1593,345000;1765535191898059;331,500000;1765535191898060;0
310;1765535191898061;1271,790000;1765535191898061;155,025000;1765535191898061;0
311;1765535191898062;1636,635000;1765535191898062;155,025000;1765535191898061;0
312;1765535191898063;1636,635000;1765535191898062;320,190000;1765535191898063;0
313;1765535191898064;1377,285000;1765535191898064;268,515000;1765535191898064;0
314;1765535191898065;1357,980000;1765535191898065;268,515000;1765535191898064;0
315;1765535191898066;1357,980000;1765535191898065;185,055000;1765535191898066;0
316;1765535191898067;1858,155000;1765535191898067;387,855000;1765535191898067;0
317;1765535191898068;1540,305000;1765535191898068;387,855000;1765535191898067;0
318;1765535191898069;1540,305000;1765535191898068;226,785000;1765535191898069;0
319;1765535191898070;1663,935000;1765535191898070;226,785000;1765535191898069;0
320;1765535191898071;1663,935000;1765535191898070;327,990000;1765535191898071;0
321;1765535191898072;1287,195000;1765535191898072;-326,625000;1765535191898072;0
322;1765535191898073;36,270000;1765535191898073;-326,625000;1765535191898072;0
323;1765535191898074;36,270000;1765535191898073;-1078,545000;1765535191898074;0
324;1765535191898075;-20,865000;1765535191898075;-1078,545000;1765535191898074;0
325;1765535191898076;1466,205000;1765535191898076;-1131,780000;1765535191898076;0
326;1765535191898077;1466,205000;1765535191898076;250,380000;1765535191898077;0
327;1765535191898078;1576,770000;1765535191898078;250,380000;1765535191898077;0
328;1765535191898079;1576,770000;1765535191898078;266,175000;1765535191898079;0
329;1765535191900751;-3912,480000;1765535191900751;266,175000;1765535191898079;0
330;1765535191900752;1626,690000;1765535191900752;182,910000;1765535191900752;0
331;1765535191900753;1613,820000;1765535191900753;335,790000;1765535191900753;0
332;1765535191900754;1613,820000;1765535191900753;225,420000;1765535191900754;0
333;1765535191900755;1673,685000;1765535191900755;316,095000;1765535191900755;0
334;1765535191900756;1590,810000;1765535191900756;376,740000;1765535191900756;0
335;1765535191900757;1341,015000;1765535191900757;349,050000;1765535191900757;0
336;1765535191900758;1286,415000;1765535191900758;224,055000;1765535191900758;0
337;1765535191900759;1518,270000;1765535191900759;399,360000;1765535191900759;0
338;1765535191900760;1316,055000;1765535191900760;391,170000;1765535191900760;0
339;1765535191900761;859,170000;1765535191900761;222,495000;1765535191900761;0
340;1765535191900762;974,220000;1765535191900762;201,630000;1765535191900762;0
341;1765535191900763;1097,070000;1765535191900763;148,005000;1765535191900763;0
342;1765535191900764;1194,765000;1765535191900764;293,085000;1765535191900764;0
343;1765535191900765;985,530000;1765535191900765;349,245000;1765535191900765;0
344;1765535191900766;902,460000;1765535191900766;276,120000;1765535191900766;0
345;1765535191900767;640,380000;1765535191900767;433,485000;1765535191900767;0
346;1765535191900768;656,955000;1765535191900768;265,785000;1765535191900768;0
347;1765535191900769;717,405000;1765535191900769;222,300000;1765535191900769;0
348;1765535191900770;501,150000;1765535191900770;347,295000;1765535191900770;0
349;1765535191900775;370,110000;1765535191900775;347,295000;1765535191900770;0
350;1765535191900776;334,815000;1765535191900776;167,895000;1765535191900776;0
351;1765535191900777;306,735000;1765535191900777;198,705000;1765535191900777;0
352;1765535191900778;298,545000;1765535191900778;265,590000;1765535191900778;0
353;1765535191900779;298,545000;1765535191900778;247,455000;1765535191900779;0
354;1765535191900780;199,095000;1765535191900780;191,295000;1765535191900780;0
355;1765535191900781;229,905000;1765535191900781;303,615000;1765535191900781;0
356;1765535191900782;128,895000;1765535191900782;294,255000;1765535191900782;0
357;1765535191900783;115,830000;1765535191900783;326,430000;1765535191900783;0
358;1765535191900784;251,355000;1765535191900784;326,430000;1765535191900783;0
359;1765535191900785;-161,070000;1765535191900785;332,670000;1765535191900785;0
360;1765535191900786;-74,685000;1765535191900786;160,485000;1765535191900786;0
361;1765535191955099;-3927,105000;1765535191955099;160,485000;1765535191900786;0
362;1765535191955101;-1852,305000;1765535191955101;-1342,575000;1765535191955101;0
363;1765535191955102;-1006,590000;1765535191955102;-1069,380000;1765535191955102;0
364;1765535191955103;-2271,360000;1765535191955103;-486,720000;1765535191955103;0
365;1765535191955104;-1993,290000;1765535191955104;-1206,465000;1765535191955104;0
366;1765535191955105;-897,585000;1765535191955105;-985,920000;1765535191955105;0
367;1765535191955106;-644,475000;1765535191955106;297,765000;1765535191955106;0
368;1765535191955107;-625,170000;1765535191955107;319,020000;1765535191955107;0
369;1765535191955108;-625,170000;1765535191955107;281,775000;1765535191955108;0
370;1765535191955109;-609,960000;1765535191955109;254,865000;1765535191955109;0
371;1765535191955110;-613,275000;1765535191955110;288,015000;1765535191955110;0
372;1765535191955111;-923,715000;1765535191955111;324,870000;1765535191955111;0
373;1765535191955112;-862,290000;1765535191955112;285,675000;1765535191955112;0
374;1765535191955113;-778,050000;1765535191955113;284,895000;1765535191955113;0
375;1765535191955114;-750,360000;1765535191955114;282,360000;1765535191955114;0
376;1765535191955115;-769,275000;1765535191955115;395,070000;1765535191955115;0
377;1765535191955116;-962,130000;1765535191955116;353,535000;1765535191955116;0
378;1765535191955117;-832,455000;1765535191955117;313,950000;1765535191955117;0
379;1765535191955118;-959,985000;1765535191955118;322,335000;1765535191955118;0
380;1765535191955119;-1020,045000;1765535191955119;232,830000;1765535191955119;0
381;1765535191955120;-982,410000;1765535191955120;320,190000;1765535191955120;0
382;1765535191955121;-1018,875000;1765535191955121;269,100000;1765535191955121;0
383;1765535191955122;-1144,845000;1765535191955122;407,550000;1765535191955122;0
384;1765535191955123;-1005,225000;1765535191955123;419,250000;1765535191955123;0
385;1765535191955124;-1142,310000;1765535191955124;228,345000;1765535191955124;0
386;1765535191955125;-1021,410000;1765535191955125;267,150000;1765535191955125;0
387;1765535191955126;-1162,590000;1765535191955126;275,535000;1765535191955126;0
388;1765535191955127;-1161,030000;1765535191955127;187,980000;1765535191955127;0
389;1765535191955128;-1100,190000;1765535191955128;311,025000;1765535191955128;0
390;1765535191955129;-1240,785000;1765535191955129;311,025000;1765535191955128;0
391;1765535191955130;-1088,490000;1765535191955130;329,550000;1765535191955130;0
392;1765535191955131;-1148,355000;1765535191955131;253,500000;1765535191955131;0
393;1765535191955132;-1107,990000;1765535191955132;386,685000;1765535191955132;0
394;1765535191955133;-1107,990000;1765535191955132;346,125000;1765535191955133;0
395;1765535192074985;-1654,965000;1765535192074985;346,125000;1765535191955133;0
396;1765535192074987;-1654,965000;1765535192074985;-43,485000;1765535192074987;0
397;1765535192074988;-1369,680000;1765535192074988;-43,485000;1765535192074987;0
398;1765535192074989;-1369,680000;1765535192074988;207,870000;1765535192074989;0
399;1765535192074990;-1402,050000;1765535192074990;207,870000;1765535192074989;0
400;1765535192074991;-1402,050000;1765535192074990;277,680000;1765535192074991;0
401;1765535192074992;-1412,190000;1765535192074992;192,270000;1765535192074992;0
402;1765535192074993;-1556,880000;1765535192074993;192,270000;1765535192074992;0
403;1765535192074995;-1518,465000;1765535192074995;195,000000;1765535192074995;0
404;1765535192074996;-1518,465000;1765535192074995;335,985000;1765535192074996;0
405;1765535192074997;-1518,465000;1765535192074995;292,110000;1765535192074997;0
406;1765535192074998;-1409,460000;1765535192074998;216,060000;1765535192074998;0
407;1765535192074999;-1472,250000;1765535192074999;211,185000;1765535192074999;0
408;1765535192075000;-1657,890000;1765535192075000;211,185000;1765535192074999;0
409;1765535192075001;-2981,550000;1765535192075001;-172,185000;1765535192075001;0
410;1765535192075002;-3029,520000;1765535192075002;-1031,745000;1765535192075002;0
411;1765535192075003;-1892,865000;1765535192075003;-980,850000;1765535192075003;0
412;1765535192075004;-1711,905000;1765535192075004;-317,655000;1765535192075004;0
413;1765535192075005;-1711,905000;1765535192075004;191,295000;1765535192075005;0
414;1765535192075006;-1568,190000;1765535192075006;236,925000;1765535192075006;0
415;1765535192075007;-1674,270000;1765535192075007;316,095000;1765535192075007;0
416;1765535192075008;-1674,270000;1765535192075007;225,420000;1765535192075008;0
417;1765535192075009;-1605,825000;1765535192075009;225,420000;1765535192075008;0
418;1765535192075010;-1819,350000;1765535192075010;232,830000;1765535192075010;0
419;1765535192075011;-1786,785000;1765535192075011;140,400000;1765535192075011;0
420;1765535192075012;-1718,145000;1765535192075012;226,395000;1765535192075012;0
421;1765535192075013;-1743,300000;1765535192075013;239,070000;1765535192075013;0
422;1765535192075014;-1743,300000;1765535192075013;189,150000;1765535192075014;0
423;1765535192075015;-1725,945000;1765535192075015;185,055000;1765535192075015;0
424;1765535192075016;-1453,140000;1765535192075016;157,950000;1765535192075016;0
425;1765535192075017;-1655,745000;1765535192075017;386,685000;1765535192075017;0
426;1765535192075018;-1705,275000;1765535192075018;245,310000;1765535192075018;0
427;1765535192075019;-1639,170000;1765535192075019;282,750000;1765535192075019;0
428;1765535192075020;-1672,515000;1765535192075020;340,860000;1765535192075020;0
429;1765535192075021;-1953,510000;1765535192075021;363,675000;1765535192075021;0
430;1765535192075022;-1953,510000;1765535192075021;322,530000;1765535192075022;0
431;1765535192075023;-1679,535000;1765535192075023;233,415000;1765535192075023;0
432;1765535192075024;-1764,945000;1765535192075024;298,545000;1765535192075024;0
433;1765535192075025;-1739,010000;1765535192075025;366,015000;1765535192075025;0
434;1765535192075026;-1756,950000;1765535192075026;329,745000;1765535192075026;0
435;1765535192075027;-2023,515000;1765535192075027;253,890000;1765535192075027;0
436;1765535192075028;-1969,890000;1765535192075028;312,000000;1765535192075028;0
437;1765535192075029;-1630,005000;1765535192075029;312,000000;1765535192075028;0
438;1765535192075030;-1762,995000;1765535192075030;354,510000;1765535192075030;0
439;1765535192075031;-1770,210000;1765535192075031;347,685000;1765535192075031;0
440;1765535192075032;-1936,350000;1765535192075032;289,575000;1765535192075032;0
441;1765535192075033;-1902,810000;1765535192075033;222,885000;1765535192075033;0
442;1765535192075034;-1902,810000;1765535192075033;262,470000;1765535192075034;0
443;1765535192078258;-3928,275000;1765535192078258;262,470000;1765535192075034;0
444;1765535192078260;-3928,275000;1765535192078258;-26,520000;1765535192078260;0
445;1765535192078261;-1958,385000;1765535192078261;-26,520000;1765535192078260;0
446;1765535192078262;-1958,385000;1765535192078261;257,010000;1765535192078262;0
447;1765535192078263;-2290,080000;1765535192078263;96,135000;1765535192078263;0
448;1765535192078264;-2063,880000;1765535192078264;96,135000;1765535192078263;0
449;1765535192078269;-1997,190000;1765535192078269;194,610000;1765535192078269;0
450;1765535192078270;-1997,190000;1765535192078269;278,655000;1765535192078270;0
451;1765535192078271;-2144,610000;1765535192078271;278,655000;1765535192078270;0
452;1765535192078272;-2187,900000;1765535192078272;316,875000;1765535192078272;0
453;1765535192078273;-2187,900000;1765535192078272;234,975000;1765535192078273;0
454;1765535192078274;-2163,720000;1765535192078274;234,975000;1765535192078273;0
455;1765535192078275;-2237,820000;1765535192078275;144,495000;1765535192078275;0
456;1765535192078276;-2237,820000;1765535192078275;146,445000;1765535192078276;0
457;1765535192078278;-2216,175000;1765535192078278;146,445000;1765535192078276;0
458;1765535192078279;-2216,175000;1765535192078278;189,735000;1765535192078279;0
459;1765535192078280;-2147,535000;1765535192078280;290,940000;1765535192078280;0
460;1765535192078281;-2262,195000;1765535192078281;290,940000;1765535192078280;0
461;1765535192078282;-2262,195000;1765535192078281;191,685000;1765535192078282;0
462;1765535192078283;-2142,270000;1765535192078283;191,685000;1765535192078282;0
463;1765535192078284;-1919,970000;1765535192078284;316,485000;1765535192078284;0
464;1765535192078285;-1919,970000;1765535192078284;384,150000;1765535192078285;0
465;1765535192078286;-1980,615000;1765535192078286;384,150000;1765535192078285;0
466;1765535192078287;-1980,615000;1765535192078286;278,655000;1765535192078287;0
467;1765535192078288;-2246,595000;1765535192078288;278,655000;1765535192078287;0
468;1765535192078289;-2090,010000;1765535192078289;150,735000;1765535192078289;0
469;1765535192078290;-2090,010000;1765535192078289;208,650000;1765535192078290;0
470;1765535192078291;-2348,190000;1765535192078291;208,650000;1765535192078290;0
471;1765535192078292;-2348,190000;1765535192078291;121,095000;1765535192078292;0
472;1765535192078293;-2304,705000;1765535192078293;121,095000;1765535192078292;0
473;1765535192078294;-2241,915000;1765535192078294;121,485000;1765535192078294;0
474;1765535192078295;-2241,915000;1765535192078294;186,420000;1765535192078295;0
475;1765535192078296;-2000,895000;1765535192078296;186,420000;1765535192078295;0
476;1765535192078297;-2000,895000;1765535192078297;269,880000;1765535192078297;0
477;1765535192078298;-2285,985000;1765535192078298;269,880000;1765535192078297;0
478;1765535192078299;-2727,465000;1765535192078299;232,245000;1765535192078299;0
479;1765535192078300;-3351,465000;1765535192078300;-367,770000;1765535192078300;0
480;1765535192078301;-3103,035000;1765535192078301;-1118,910000;1765535192078301;0
481;1765535192078302;-1568,385000;1765535192078302;-1035,450000;1765535192078302;0
482;1765535192078303;-1426,620000;1765535192078303;278,655000;1765535192078303;0
483;1765535192078304;-1599,585000;1765535192078304;283,725000;1765535192078304;0
484;1765535192078305;-1497,795000;1765535192078305;245,895000;1765535192078305;0
485;1765535192078306;-1652,820000;1765535192078306;264,030000;1765535192078306;0
486;1765535192078307;-1456,065000;1765535192078307;347,295000;1765535192078307;0
487;1765535192078308;-1559,220000;1765535192078308;347,295000;1765535192078307;0
488;1765535192078309;-1592,955000;1765535192078309;272,805000;1765535192078309;0
489;1765535192078310;-1489,410000;1765535192078310;369,915000;1765535192078310;0
490;1765535192078311;-1750,905000;1765535192078311;397,800000;1765535192078311;0
491;1765535192078312;-1695,525000;1765535192078312;198,510000;1765535192078312;0
492;1765535192078313;-1668,615000;1765535192078313;232,830000;1765535192078313;0
493;1765535192078314;-1732,575000;1765535192078314;274,170000;1765535192078314;0
494;1765535192078315;-1807,650000;1765535192078315;172,575000;1765535192078315;0
495;1765535192078316;-2031,705000;1765535192078316;183,690000;1765535192078316;0
496;1765535192078317;-1970,475000;1765535192078317;186,615000;1765535192078317;0
497;1765535192136990;-3926,520000;1765535192136990;186,615000;1765535192078317;0
498;1765535192136993;-3926,520000;1765535192136990;20,670000;1765535192136993;0
499;1765535192136994;-3926,520000;1765535192136990;291,135000;1765535192136994;0
500;1765535192136995;-1801,410000;1765535192136995;291,135000;1765535192136994;0
501;1765535192136996;-1615,380000;1765535192136996;210,990000;1765535192136996;0
502;1765535192136997;-1807,650000;1765535192136997;366,405000;1765535192136997;0
503;1765535192136998;-1832,610000;1765535192136998;242,775000;1765535192136998;0
504;1765535192136999;-1901,445000;1765535192136999;210,210000;1765535192136999;0
505;1765535192137000;-1901,445000;1765535192136999;131,625000;1765535192137000;0
506;1765535192137001;-1996,995000;1765535192137001;201,630000;1765535192137001;0
507;1765535192137002;-1879,995000;1765535192137002;201,630000;1765535192137001;0
508;1765535192137003;-1927,380000;1765535192137003;327,015000;1765535192137003;0
509;1765535192137004;-1927,380000;1765535192137003;225,615000;1765535192137004;0
510;1765535192137005;-1575,405000;1765535192137005;465,660000;1765535192137005;0
511;1765535192137006;-1897,545000;1765535192137006;234,000000;1765535192137006;0
512;1765535192137007;-1684,215000;1765535192137007;234,000000;1765535192137006;0
513;1765535192137008;-1932,645000;1765535192137008;258,375000;1765535192137008;0
514;1765535192137009;-1963,650000;1765535192137009;222,495000;1765535192137009;0
515;1765535192137010;-1963,650000;1765535192137009;240,435000;1765535192137010;0
516;1765535192137011;-1689,480000;1765535192137011;334,815000;1765535192137011;0
517;1765535192137012;-1928,745000;1765535192137012;164,190000;1765535192137012;0
518;1765535192137013;-1569,165000;1765535192137013;313,950000;1765535192137013;0
519;1765535192137014;-1774,500000;1765535192137014;249,990000;1765535192137014;0
520;1765535192137015;-1689,090000;1765535192137015;295,230000;1765535192137015;0
521;1765535192137016;-1782,105000;1765535192137016;217,230000;1765535192137016;0
522;1765535192137017;-1750,905000;1765535192137017;208,845000;1765535192137017;0
523;1765535192137018;-1697,670000;1765535192137018;253,695000;1765535192137018;0
524;1765535192137019;-1708,005000;1765535192137019;265,005000;1765535192137019;0
525;1765535192137020;-1957,800000;1765535192137020;228,150000;1765535192137020;0
526;1765535192137021;-1948,245000;1765535192137021;65,520000;1765535192137021;0
527;1765535192137023;-1802,970000;1765535192137023;133,770000;1765535192137023;0
528;1765535192137024;-1937,910000;1765535192137024;39,390000;1765535192137024;0
529;1765535192137025;-1514,565000;1765535192137025;315,120000;1765535192137025;0
530;1765535192137026;-1773,330000;1765535192137026;243,750000;1765535192137026;0
531;1765535192137028;-1890,330000;1765535192137028;243,750000;1765535192137026;0
532;1765535192137029;-1890,330000;1765535192137028;78,780000;1765535192137029;0
533;1765535192137030;-1780,545000;1765535192137030;190,710000;1765535192137030;0
534;1765535192137031;-1949,025000;1765535192137031;-137,280000;1765535192137031;0
535;1765535192137033;-2751,060000;1765535192137033;-1074,450000;1765535192137033;0
536;1765535192137034;-2446,470000;1765535192137034;-969,930000;1765535192137034;0
537;1765535192137035;-1411,020000;1765535192137035;-260,130000;1765535192137035;0
538;1765535192137036;-2466,945000;1765535192137036;-1212,705000;1765535192137036;0
539;1765535192137037;-2013,960000;1765535192137037;-912,795000;1765535192137037;0
540;1765535192137038;-931,905000;1765535192137038;-148,785000;1765535192137038;0
541;1765535192137926;-3922,815000;1765535192137926;-148,785000;1765535192137038;0
542;1765535192137929;-3922,815000;1765535192137926;45,435000;1765535192137929;0
543;1765535192137931;-832,260000;1765535192137931;267,735000;1765535192137931;0
544;1765535192137932;-1009,905000;1765535192137932;267,735000;1765535192137931;0
545;1765535192137933;-659,490000;1765535192137933;278,070000;1765535192137933;0
546;1765535192137934;-799,695000;1765535192137934;363,870000;1765535192137934;0
547;1765535192137935;-930,735000;1765535192137935;299,325000;1765535192137935;0
548;1765535192137937;-930,735000;1765535192137935;295,425000;1765535192137937;0
549;1765535192137938;-763,620000;1765535192137938;420,615000;1765535192137938;0
550;1765535192137940;-781,755000;1765535192137940;410,085000;1765535192137940;0
551;1765535192137941;-1073,865000;1765535192137941;273,585000;1765535192137941;0
552;1765535192137942;-813,540000;1765535192137942;329,550000;1765535192137942;0
553;1765535192137943;-881,985000;1765535192137943;343,005000;1765535192137943;0
554;1765535192137944;-875,745000;1765535192137944;290,940000;1765535192137944;0
555;1765535192137945;-1008,930000;1765535192137945;181,935000;1765535192137945;0
556;1765535192137946;-749,970000;1765535192137946;372,255000;1765535192137946;0
557;1765535192137948;-488,475000;1765535192137948;425,880000;1765535192137948;0
558;1765535192137949;-542,880000;1765535192137949;416,130000;1765535192137949;0
559;1765535192137950;-385,905000;1765535192137950;359,775000;1765535192137950;0
560;1765535192137951;-791,700000;1765535192137951;201,630000;1765535192137951;0
561;1765535192137952;-322,335000;1765535192137952;400,335000;1765535192137952;0
562;1765535192137953;-412,425000;1765535192137953;344,760000;1765535192137953;0
563;1765535192137954;-267,930000;1765535192137954;333,060000;1765535192137954;0
564;1765535192137955;-215,475000;1765535192137955;333,060000;1765535192137954;0
565;1765535192137956;-323,700000;1765535192137956;381,420000;1765535192137956;0
566;1765535192137957;-374,400000;1765535192137957;325,455000;1765535192137957;0
567;1765535192137958;-164,580000;1765535192137958;238,485000;1765535192137958;0
568;1765535192137959;177,255000;1765535192137959;278,850000;1765535192137959;0
569;1765535192137960;-11,700000;1765535192137960;370,110000;1765535192137960;0
570;1765535192137961;157,950000;1765535192137961;335,790000;1765535192137961;0
571;1765535192137962;157,950000;1765535192137961;358,605000;1765535192137962;0
572;1765535192137963;126,750000;1765535192137963;358,605000;1765535192137962;0
573;1765535192137964;101,790000;1765535192137964;407,355000;1765535192137964;0
574;1765535192137965;-70,980000;1765535192137965;402,480000;1765535192137965;0
575;1765535192137966;158,145000;1765535192137966;251,550000;1765535192137966;0
576;1765535192137967;258,375000;1765535192137967;385,125000;1765535192137967;0
577;1765535192137968;213,330000;1765535192137968;314,730000;1765535192137968;0
578;1765535192137969;343,005000;1765535192137969;291,525000;1765535192137969;0
579;1765535192137970;343,005000;1765535192137969;378,495000;1765535192137970;0
580;1765535192137971;503,100000;1765535192137971;378,495000;1765535192137970;0
581;1765535192137972;588,510000;1765535192137972;379,470000;1765535192137972;0
582;1765535192137973;588,510000;1765535192137972;253,500000;1765535192137973;0
583;1765535192196863;-3915,795000;1765535192196863;253,500000;1765535192137973;0
584;1765535192196865;-3915,795000;1765535192196863;166,725000;1765535192196865;0
585;1765535192196866;-1072,695000;1765535192196866;166,725000;1765535192196865;0
586;1765535192196867;-700,635000;1765535192196867;-1219,140000;1765535192196867;0
587;1765535192196868;-700,635000;1765535192196867;-896,415000;1765535192196868;0
588;1765535192196869;370,890000;1765535192196869;-114,270000;1765535192196869;0
589;1765535192196870;-706,875000;1765535192196870;-114,270000;1765535192196869;0
590;1765535192196871;-476,385000;1765535192196871;-1084,785000;1765535192196871;0
591;1765535192196872;430,950000;1765535192196872;-915,135000;1765535192196872;0
592;1765535192196873;430,950000;1765535192196872;-179,400000;1765535192196873;0
593;1765535192196874;994,305000;1765535192196874;181,740000;1765535192196874;0
594;1765535192196875;1345,695000;1765535192196875;327,990000;1765535192196875;0
595;1765535192196876;1404,195000;1765535192196876;420,225000;1765535192196876;0
596;1765535192196877;1404,195000;1765535192196876;499,200000;1765535192196877;0
597;1765535192196878;1426,035000;1765535192196878;440,895000;1765535192196878;0
598;1765535192196879;1426,035000;1765535192196878;408,135000;1765535192196879;0
599;1765535192196880;1219,335000;1765535192196880;162,630000;1765535192196880;0
600;1765535192196881;1468,545000;1765535192196881;213,720000;1765535192196881;0
601;1765535192196882;1468,545000;1765535192196881;326,040000;1765535192196882;0
602;1765535192196883;1344,135000;1765535192196883;257,790000;1765535192196883;0
603;1765535192196884;1440,465000;1765535192196884;370,305000;1765535192196884;0
604;1765535192196885;1386,450000;1765535192196885;370,305000;1765535192196884;0
605;1765535192196886;1386,450000;1765535192196885;316,095000;1765535192196886;0
606;1765535192196887;1488,435000;1765535192196887;363,870000;1765535192196887;0
607;1765535192196888;1470,495000;1765535192196888;383,565000;1765535192196888;0
608;1765535192196889;1626,495000;1765535192196889;345,150000;1765535192196889;0
609;1765535192196890;1626,495000;1765535192196889;343,005000;1765535192196890;0
610;1765535192196891;1693,185000;1765535192196891;343,005000;1765535192196890;0
611;1765535192196892;1867,710000;1765535192196892;303,615000;1765535192196892;0
612;1765535192196893;1713,075000;1765535192196893;387,855000;1765535192196893;0
613;1765535192196894;1774,110000;1765535192196894;387,855000;1765535192196894;0
614;1765535192196895;1481,610000;1765535192196895;386,295000;1765535192196895;0
615;1765535192196896;1786,590000;1765535192196896;334,815000;1765535192196896;0
616;1765535192196897;1763,775000;1765535192196897;426,270000;1765535192196897;0
617;1765535192196898;2038,335000;1765535192196898;308,295000;1765535192196898;0
618;1765535192196899;1707,420000;1765535192196899;481,455000;1765535192196899;0
619;1765535192196900;1707,420000;1765535192196899;157,755000;1765535192196900;0
620;1765535192196901;1551,030000;1765535192196901;59,670000;1765535192196901;0
621;1765535192196902;1777,815000;1765535192196902;271,245000;1765535192196902;0
622;1765535192196903;2012,400000;1765535192196903;226,590000;1765535192196903;0
623;1765535192196904;1954,095000;1765535192196904;320,385000;1765535192196904;0
624;1765535192255459;-3911,115000;1765535192255459;320,385000;1765535192196904;0
625;1765535192255461;-3911,115000;1765535192255459;135,525000;1765535192255461;0
626;1765535192255462;1953,900000;1765535192255462;197,730000;1765535192255462;0
627;1765535192255463;2344,290000;1765535192255463;111,735000;1765535192255463;0
628;1765535192255464;2344,290000;1765535192255463;280,995000;1765535192255464;0
629;1765535192255465;2011,230000;1765535192255465;389,415000;1765535192255465;0
630;1765535192255466;2237,625000;1765535192255466;207,870000;1765535192255466;0
631;1765535192255467;2384,655000;1765535192255467;249,210000;1765535192255467;0
632;1765535192255468;2339,415000;1765535192255468;250,380000;1765535192255468;0
633;1765535192255469;2375,295000;1765535192255469;258,570000;1765535192255469;0
634;1765535192255470;2591,745000;1765535192255470;435,825000;1765535192255470;0
635;1765535192255471;2628,600000;1765535192255471;119,535000;1765535192255471;0
636;1765535192255472;2628,600000;1765535192255471;-17,355000;1765535192255472;0
637;1765535192255473;2071,095000;1765535192255473;-476,385000;1765535192255473;0
638;1765535192255474;1112,670000;1765535192255474;-974,805000;1765535192255474;0
639;1765535192255475;2214,615000;1765535192255475;-1084,980000;1765535192255475;0
640;1765535192255476;2848,950000;1765535192255476;475,215000;1765535192255476;0
641;1765535192255477;2672,670000;1765535192255477;251,160000;1765535192255477;0
642;1765535192255478;2672,670000;1765535192255477;295,620000;1765535192255478;0
643;1765535192255479;2450,370000;1765535192255479;203,190000;1765535192255479;0
644;1765535192255480;2818,140000;1765535192255480;462,735000;1765535192255480;0
645;1765535192255481;2596,620000;1765535192255481;271,050000;1765535192255481;0
646;1765535192255482;2525,445000;1765535192255482;232,830000;1765535192255482;0
647;1765535192255483;2476,890000;1765535192255483;152,880000;1765535192255483;0
648;1765535192255484;2777,190000;1765535192255484;422,955000;1765535192255484;0
649;1765535192255485;2329,275000;1765535192255485;216,060000;1765535192255485;0
650;1765535192255486;2649,075000;1765535192255486;464,295000;1765535192255486;0
651;1765535192255487;2649,075000;1765535192255486;421,005000;1765535192255487;0
652;1765535192315732;-3908,970000;1765535192315732;421,005000;1765535192255487;0
653;1765535192315736;-3908,970000;1765535192315732;73,905000;1765535192315736;0
654;1765535192315738;2882,685000;1765535192315738;73,905000;1765535192315736;0
655;1765535192315740;2882,685000;1765535192315738;303,030000;1765535192315740;0
656;1765535192315741;2619,825000;1765535192315741;303,030000;1765535192315740;0
657;1765535192315742;2619,825000;1765535192315741;176,475000;1765535192315742;0
658;1765535192315743;2827,110000;1765535192315743;357,435000;1765535192315743;0
659;1765535192315744;2635,620000;1765535192315744;357,435000;1765535192315743;0
660;1765535192315745;2635,620000;1765535192315744;144,495000;1765535192315745;0
661;1765535192315746;2660,190000;1765535192315746;144,495000;1765535192315745;0
662;1765535192315747;2660,190000;1765535192315746;279,240000;1765535192315747;0
663;1765535192315748;2880,345000;1765535192315748;341,445000;1765535192315748;0
664;1765535192315750;2340,975000;1765535192315750;212,550000;1765535192315750;0
665;1765535192315751;2741,310000;1765535192315751;212,550000;1765535192315750;0
666;1765535192315752;2741,310000;1765535192315751;429,390000;1765535192315752;0
667;1765535192315753;2443,350000;1765535192315753;429,390000;1765535192315752;0
668;1765535192315754;2443,350000;1765535192315753;297,375000;1765535192315754;0
669;1765535192315755;2497,560000;1765535192315755;297,375000;1765535192315754;0
670;1765535192315756;2497,560000;1765535192315755;345,150000;1765535192315756;0
671;1765535192315757;2547,870000;1765535192315757;345,150000;1765535192315756;0
672;1765535192315758;2547,870000;1765535192315757;255,840000;1765535192315758;0
673;1765535192315759;2517,645000;1765535192315759;255,840000;1765535192315758;0
674;1765535192315760;2169,375000;1765535192315760;341,055000;1765535192315760;0
675;1765535192315761;2169,375000;1765535192315760;157,950000;1765535192315761;0
676;1765535192315762;2665,065000;1765535192315762;157,950000;1765535192315761;0
677;1765535192315763;2665,065000;1765535192315762;306,150000;1765535192315763;0
678;1765535192315764;2498,535000;1765535192315764;306,150000;1765535192315763;0
679;1765535192315765;2498,535000;1765535192315764;245,895000;1765535192315765;0
680;1765535192315766;2570,685000;1765535192315766;158,730000;1765535192315766;0
681;1765535192315768;2528,955000;1765535192315768;158,730000;1765535192315766;0
682;1765535192315769;2528,955000;1765535192315768;245,310000;1765535192315769;0
683;1765535192315770;2599,935000;1765535192315770;245,310000;1765535192315769;0
684;1765535192315771;2599,935000;1765535192315770;279,240000;1765535192315771;0
685;1765535192315772;2520,570000;1765535192315772;279,240000;1765535192315771;0
686;1765535192315773;2520,570000;1765535192315772;233,610000;1765535192315773;0
687;1765535192315774;2846,220000;1765535192315774;353,535000;1765535192315774;0
688;1765535192315775;2574,975000;1765535192315775;353,535000;1765535192315774;0
689;1765535192315776;2574,975000;1765535192315775;148,980000;1765535192315776;0
690;1765535192315779;2772,705000;1765535192315779;148,980000;1765535192315776;0
691;1765535192315780;2772,705000;1765535192315779;334,620000;1765535192315780;0
692;1765535192315781;2379,000000;1765535192315781;178,230000;1765535192315781;0
693;1765535192315782;2667,405000;1765535192315782;178,230000;1765535192315781;0
694;1765535192315783;2667,405000;1765535192315782;291,330000;1765535192315783;0
695;1765535192315784;2255,370000;1765535192315784;179,205000;1765535192315784;0
696;1765535192315785;2030,145000;1765535192315785;179,205000;1765535192315784;0
697;1765535192315786;2030,145000;1765535192315785;233,610000;1765535192315786;0
698;1765535192315787;2040,870000;1765535192315787;126,750000;1765535192315787;0
699;1765535192315788;1782,300000;1765535192315788;126,750000;1765535192315787;0
700;1765535192315789;1782,300000;1765535192315788;-440,310000;1765535192315789;0
701;1765535192315790;707,070000;1765535192315790;-1058,850000;1765535192315790;0
702;1765535192315791;359,775000;1765535192315791;-1058,850000;1765535192315790;0
703;1765535192315792;359,775000;1765535192315791;-1199,055000;1765535192315792;0
704;1765535192315793;1683,825000;1765535192315793;-61,815000;1765535192315793;0
705;1765535192315794;2059,200000;1765535192315794;-61,815000;1765535192315793;0
706;1765535192315795;2059,200000;1765535192315794;256,425000;1765535192315795;0
707;1765535192315796;2197,455000;1765535192315796;256,425000;1765535192315795;0
708;1765535192315797;2398,110000;1765535192315797;295,815000;1765535192315797;0
709;1765535192315798;2398,110000;1765535192315797;355,875000;1765535192315798;0
710;1765535192315800;2102,295000;1765535192315800;355,875000;1765535192315798;0
711;1765535192315801;2102,295000;1765535192315800;292,305000;1765535192315801;0
712;1765535192315802;2326,545000;1765535192315802;292,305000;1765535192315801;0
713;1765535192315803;2326,545000;1765535192315802;383,370000;1765535192315803;0
714;1765535192315804;2228,070000;1765535192315804;383,370000;1765535192315803;0
715;1765535192315805;2228,070000;1765535192315804;317,070000;1765535192315805;0
716;1765535192315806;2308,410000;1765535192315806;317,070000;1765535192315805;0
717;1765535192315807;2308,410000;1765535192315806;336,375000;1765535192315807;0
718;1765535192315808;2101,125000;1765535192315808;188,760000;1765535192315808;0
719;1765535192315809;1761,435000;1765535192315809;188,760000;1765535192315808;0
720;1765535192315810;1761,435000;1765535192315809;165,360000;1765535192315810;0
721;1765535192375896;-3912,480000;1765535192375896;165,360000;1765535192315810;0
722;1765535192375898;1792,830000;1765535192375898;123,045000;1765535192375898;0
723;1765535192375899;1945,710000;1765535192375899;288,015000;1765535192375899;0
724;1765535192375900;1895,595000;1765535192375900;345,735000;1765535192375900;0
725;1765535192375901;1717,950000;1765535192375901;345,735000;1765535192375900;0
726;1765535192375902;1950,780000;1765535192375902;162,630000;1765535192375902;0
727;1765535192375903;2230,605000;1765535192375903;269,100000;1765535192375903;0
728;1765535192375904;1802,970000;1765535192375904;302,835000;1765535192375904;0
729;1765535192375905;1821,105000;1765535192375905;294,255000;1765535192375905;0
730;1765535192375906;1843,335000;1765535192375906;197,925000;1765535192375906;0
731;1765535192375907;1597,635000;1765535192375907;53,820000;1765535192375907;0
732;1765535192375908;1625,910000;1765535192375908;136,305000;1765535192375908;0
733;1765535192375909;1951,365000;1765535192375909;382,785000;1765535192375909;0
734;1765535192375910;1830,855000;1765535192375910;355,290000;1765535192375910;0
735;1765535192375911;1797,120000;1765535192375911;271,050000;1765535192375911;0
736;1765535192375912;1709,175000;1765535192375912;345,150000;1765535192375912;0
737;1765535192375913;1838,655000;1765535192375913;232,440000;1765535192375913;0
738;1765535192375914;1951,950000;1765535192375914;303,030000;1765535192375914;0
739;1765535192375915;2188,095000;1765535192375915;332,670000;1765535192375915;0
740;1765535192375916;1625,520000;1765535192375916;103,935000;1765535192375916;0
741;1765535192375917;1805,505000;1765535192375917;183,105000;1765535192375917;0
742;1765535192375918;1754,220000;1765535192375918;331,110000;1765535192375918;0
743;1765535192375919;1108,770000;1765535192375919;178,815000;1765535192375919;0
744;1765535192375920;1235,910000;1765535192375920;46,215000;1765535192375920;0
745;1765535192375921;1235,910000;1765535192375920;300,495000;1765535192375921;0
746;1765535192375922;1174,095000;1765535192375922;337,740000;1765535192375922;0
747;1765535192375923;1093,755000;1765535192375923;206,310000;1765535192375923;0
748;1765535192378409;-3914,040000;1765535192378409;206,310000;1765535192375923;0
749;1765535192378410;-3914,040000;1765535192378409;-13,455000;1765535192378410;0
750;1765535192378411;1477,125000;1765535192378411;300,300000;1765535192378411;0
751;1765535192378412;1477,125000;1765535192378411;321,555000;1765535192378412;0
752;1765535192378413;1751,295000;1765535192378413;400,920000;1765535192378413;0
753;1765535192378414;1670,565000;1765535192378414;272,415000;1765535192378414;0
754;1765535192378415;1566,825000;1765535192378415;133,965000;1765535192378415;0
755;1765535192378416;1557,270000;1765535192378416;314,535000;1765535192378416;0
756;1765535192378417;1549,470000;1765535192378417;310,830000;1765535192378417;0
757;1765535192378418;1364,805000;1765535192378418;208,650000;1765535192378418;0
758;1765535192378419;1403,415000;1765535192378419;328,380000;1765535192378419;0
759;1765535192378420;1605,435000;1765535192378420;324,480000;1765535192378420;0
760;1765535192378421;1645,410000;1765535192378421;270,270000;1765535192378421;0
761;1765535192378422;1723,020000;1765535192378422;265,200000;1765535192378422;0
762;1765535192378423;1513,590000;1765535192378423;313,560000;1765535192378423;0
763;1765535192378424;1852,110000;1765535192378424;334,035000;1765535192378424;0
764;1765535192378425;1753,830000;1765535192378425;315,510000;1765535192378425;0
765;1765535192378426;1645,215000;1765535192378426;365,430000;1765535192378426;0
766;1765535192378431;1419,210000;1765535192378431;365,430000;1765535192378426;0
767;1765535192378432;1655,160000;1765535192378432;181,935000;1765535192378432;0
768;1765535192378433;1726,335000;1765535192378433;208,065000;1765535192378433;0
769;1765535192378434;1314,690000;1765535192378434;165,750000;1765535192378434;0
770;1765535192378435;1618,305000;1765535192378435;383,565000;1765535192378435;0
771;1765535192378436;1118,520000;1765535192378436;251,160000;1765535192378436;0
772;1765535192378437;1313,910000;1765535192378437;240,240000;1765535192378437;0
773;1765535192378438;1104,870000;1765535192378438;366,015000;1765535192378438;0
774;1765535192378439;1104,870000;1765535192378438;215,865000;1765535192378439;0
775;1765535192494583;-3917,550000;1765535192494583;215,865000;1765535192378439;0
776;1765535192494585;-3917,550000;1765535192494583;-107,250000;1765535192494585;0
777;1765535192494586;461,565000;1765535192494586;80,340000;1765535192494586;0
778;1765535192494587;545,805000;1765535192494587;166,530000;1765535192494587;0
779;1765535192494588;835,965000;1765535192494588;211,185000;1765535192494588;0
780;1765535192494589;678,405000;1765535192494589;380,055000;1765535192494589;0
781;1765535192494590;380,640000;1765535192494590;205,920000;1765535192494590;0
782;1765535192494591;495,690000;1765535192494591;282,945000;1765535192494591;0
783;1765535192494592;-1307,085000;1765535192494592;-1169,610000;1765535192494592;0
784;1765535192494593;-314,535000;1765535192494593;-1244,100000;1765535192494593;0
785;1765535192494594;-1700,985000;1765535192494594;-1293,825000;1765535192494594;0
786;1765535192494595;-1349,790000;1765535192494595;-1102,725000;1765535192494595;0
787;1765535192494596;126,945000;1765535192494596;362,310000;1765535192494596;0
788;1765535192494597;48,945000;1765535192494597;435,435000;1765535192494597;0
789;1765535192494598;468,780000;1765535192494598;362,310000;1765535192494598;0
790;1765535192494600;193,830000;1765535192494600;382,785000;1765535192494600;0
791;1765535192494601;-70,785000;1765535192494601;216,450000;1765535192494601;0
792;1765535192494602;-141,765000;1765535192494602;201,630000;1765535192494602;0
793;1765535192494603;-251,745000;1765535192494603;219,375000;1765535192494603;0
794;1765535192494604;-329,160000;1765535192494604;343,590000;1765535192494604;0
795;1765535192494605;-113,490000;1765535192494605;282,360000;1765535192494605;0
796;1765535192494606;-238,095000;1765535192494606;478,530000;1765535192494606;0
797;1765535192494607;-266,370000;1765535192494607;315,900000;1765535192494607;0
798;1765535192494608;-440,895000;1765535192494608;310,830000;1765535192494608;0
799;1765535192494609;-338,910000;1765535192494609;282,945000;1765535192494609;0
800;1765535192494610;-426,465000;1765535192494610;292,110000;1765535192494610;0
801;1765535192494611;-468,000000;1765535192494611;271,245000;1765535192494611;0
802;1765535192494612;-483,795000;1765535192494612;325,455000;1765535192494612;0
803;1765535192494613;-395,850000;1765535192494613;199,680000;1765535192494613;0
804;1765535192494614;-663,195000;1765535192494614;113,295000;1765535192494614;0
805;1765535192494615;-663,195000;1765535192494614;232,830000;1765535192494615;0
806;1765535192497786;-3922,230000;1765535192497786;232,830000;1765535192494615;0
807;1765535192497788;-3922,230000;1765535192497786;110,955000;1765535192497788;0
808;1765535192497789;-606,450000;1765535192497789;286,065000;1765535192497789;0
809;1765535192497790;-609,570000;1765535192497790;281,190000;1765535192497790;0
810;1765535192497791;-839,865000;1765535192497791;224,640000;1765535192497791;0
811;1765535192497792;-866,385000;1765535192497792;222,885000;1765535192497792;0
812;1765535192497793;-780,975000;1765535192497793;222,885000;1765535192497793;0
813;1765535192497794;-907,530000;1765535192497794;105,495000;1765535192497794;0
814;1765535192497795;-685,425000;1765535192497795;105,495000;1765535192497794;0
815;1765535192497796;-993,330000;1765535192497796;420,030000;1765535192497796;0
816;1765535192497797;-1037,595000;1765535192497797;184,470000;1765535192497797;0
817;1765535192497798;-1037,595000;1765535192497797;79,365000;1765535192497798;0
818;1765535192497799;-1062,945000;1765535192497799;207,675000;1765535192497799;0
819;1765535192497800;-971,685000;1765535192497800;149,175000;1765535192497800;0
820;1765535192497801;-1214,655000;1765535192497801;85,215000;1765535192497801;0
821;1765535192497802;-1161,615000;1765535192497802;141,765000;1765535192497802;0
822;1765535192497803;-1056,705000;1765535192497803;291,915000;1765535192497803;0
823;1765535192497804;-1348,035000;1765535192497804;29,055000;1765535192497804;0
824;1765535192497805;-1044,420000;1765535192497805;285,285000;1765535192497805;0
825;1765535192497806;-1384,890000;1765535192497806;46,215000;1765535192497806;0
826;1765535192497807;-1061,970000;1765535192497807;156,195000;1765535192497807;0
827;1765535192497808;-1299,675000;1765535192497808;161,460000;1765535192497808;0
828;1765535192497809;-1430,130000;1765535192497809;154,050000;1765535192497809;0
829;1765535192497810;-1131,390000;1765535192497810;266,760000;1765535192497810;0
830;1765535192497811;-1062,945000;1765535192497811;197,535000;1765535192497811;0
831;1765535192497812;-1310,595000;1765535192497812;166,335000;1765535192497812;0
832;1765535192497813;-1455,870000;1765535192497813;257,790000;1765535192497813;0
833;1765535192497814;-1520,805000;1765535192497814;109,005000;1765535192497814;0
834;1765535192497815;-1337,505000;1765535192497815;291,720000;1765535192497815;0
835;1765535192497816;-1626,690000;1765535192497816;138,840000;1765535192497816;0
836;1765535192497817;-1405,950000;1765535192497817;257,985000;1765535192497817;0
837;1765535192497818;-1252,290000;1765535192497818;371,085000;1765535192497818;0
838;1765535192555259;-3925,350000;1765535192555259;371,085000;1765535192497818;0
839;1765535192555263;-3925,350000;1765535192555259;-16,770000;1765535192555263;0
840;1765535192555264;-1664,520000;1765535192555264;-16,770000;1765535192555263;0
841;1765535192555265;-1664,520000;1765535192555264;168,870000;1765535192555265;0
842;1765535192555267;-1917,435000;1765535192555267;96,525000;1765535192555267;0
843;1765535192555268;-1589,250000;1765535192555268;96,525000;1765535192555267;0
844;1765535192555269;-1589,250000;1765535192555268;262,860000;1765535192555269;0
845;1765535192555271;-1876,680000;1765535192555271;262,860000;1765535192555269;0
846;1765535192555272;-1876,680000;1765535192555271;128,505000;1765535192555272;0
847;1765535192555273;-1643,265000;1765535192555273;201,435000;1765535192555273;0
848;1765535192555274;-1977,300000;1765535192555274;201,435000;1765535192555273;0
849;1765535192555275;-1496,625000;1765535192555275;57,330000;1765535192555275;0
850;1765535192555276;-1496,625000;1765535192555275;253,890000;1765535192555276;0
851;1765535192555277;-1875,510000;1765535192555277;54,210000;1765535192555277;0
852;1765535192555279;-1924,065000;1765535192555279;54,210000;1765535192555277;0
853;1765535192555280;-1924,065000;1765535192555279;153,075000;1765535192555280;0
854;1765535192555281;-1619,085000;1765535192555281;253,695000;1765535192555281;0
855;1765535192555282;-1939,665000;1765535192555282;253,695000;1765535192555281;0
856;1765535192555283;-1939,665000;1765535192555282;144,300000;1765535192555283;0
857;1765535192555284;-1714,050000;1765535192555284;156,780000;1765535192555284;0
858;1765535192555285;-1903,590000;1765535192555285;169,260000;1765535192555285;0
859;1765535192555286;-1981,200000;1765535192555286;169,260000;1765535192555285;0
860;1765535192555287;-1981,200000;1765535192555286;215,280000;1765535192555287;0
861;1765535192555288;-1776,450000;1765535192555288;228,540000;1765535192555288;0
862;1765535192555289;-1776,450000;1765535192555288;166,725000;1765535192555289;0
863;1765535192555290;-1875,315000;1765535192555290;186,615000;1765535192555290;0
864;1765535192555291;-1912,170000;1765535192555291;186,615000;1765535192555290;0
865;1765535192555292;-2113,605000;1765535192555292;120,510000;1765535192555292;0
866;1765535192555293;-1856,010000;1765535192555293;20,280000;1765535192555293;0
867;1765535192555294;-1856,010000;1765535192555293;219,570000;1765535192555294;0
868;1765535192555295;-2124,915000;1765535192555295;-5,265000;1765535192555295;0
869;1765535192555296;-2011,620000;1765535192555296;85,215000;1765535192555296;0
870;1765535192555297;-1983,540000;1765535192555297;197,340000;1765535192555297;0
871;1765535192555299;-1988,610000;1765535192555299;124,410000;1765535192555299;0
872;1765535192555300;-2169,765000;1765535192555300;99,255000;1765535192555300;0
873;1765535192555301;-2008,890000;1765535192555301;129,870000;1765535192555301;0
874;1765535192555302;-2192,580000;1765535192555302;129,870000;1765535192555301;0
875;1765535192555303;-1962,675000;1765535192555303;8,775000;1765535192555303;0
876;1765535192555304;-2394,210000;1765535192555304;123,630000;1765535192555304;0
877;1765535192555305;-2394,210000;1765535192555304;-425,490000;1765535192555305;0
878;1765535192555306;-3152,370000;1765535192555306;-1058,655000;1765535192555306;0
879;1765535192555307;-3152,370000;1765535192555306;-932,295000;1765535192555307;0
880;1765535192555308;-2637,960000;1765535192555308;-696,930000;1765535192555308;0
881;1765535192555309;-1798,680000;1765535192555309;-336,765000;1765535192555309;0
882;1765535192555310;-2856,360000;1765535192555310;-1130,415000;1765535192555310;0
883;1765535192555311;-2527,785000;1765535192555311;-1086,150000;1765535192555311;0
884;1765535192555312;-1583,985000;1765535192555312;-1086,150000;1765535192555311;0
885;1765535192555313;-1099,410000;1765535192555313;-244,530000;1765535192555313;0
886;1765535192555316;-1191,645000;1765535192555316;333,645000;1765535192555316;0
887;1765535192555317;-1191,645000;1765535192555316;179,595000;1765535192555317;0
888;1765535192614768;-1660,230000;1765535192614768;179,595000;1765535192555317;0
889;1765535192614770;-1660,230000;1765535192614768;25,350000;1765535192614770;0
890;1765535192614771;-1588,665000;1765535192614771;25,350000;1765535192614770;0
891;1765535192614772;-1588,665000;1765535192614771;198,315000;1765535192614772;0
892;1765535192614773;-1587,105000;1765535192614773;156,975000;1765535192614773;0
893;1765535192614774;-1356,420000;1765535192614774;156,975000;1765535192614773;0
894;1765535192614775;-1259,505000;1765535192614775;372,645000;1765535192614775;0
895;1765535192614776;-1596,660000;1765535192614776;271,245000;1765535192614776;0
896;1765535192614777;-1335,165000;1765535192614777;349,635000;1765535192614777;0
897;1765535192614778;-1456,650000;1765535192614778;333,255000;1765535192614778;0
898;1765535192614779;-1458,405000;1765535192614779;338,910000;1765535192614779;0
899;1765535192614780;-1583,400000;1765535192614780;201,630000;1765535192614780;0
900;1765535192614781;-1371,240000;1765535192614781;251,745000;1765535192614781;0
901;1765535192614782;-1543,425000;1765535192614782;295,230000;1765535192614782;0
902;1765535192614783;-1626,690000;1765535192614783;376,350000;1765535192614783;0
903;1765535192614784;-1535,040000;1765535192614784;322,530000;1765535192614784;0
904;1765535192614785;-1708,785000;1765535192614785;163,215000;1765535192614785;0
905;1765535192614786;-1517,490000;1765535192614786;300,495000;1765535192614786;0
906;1765535192614787;-1732,575000;1765535192614787;183,495000;1765535192614787;0
907;1765535192614788;-1511,835000;1765535192614788;317,655000;1765535192614788;0
908;1765535192614789;-2059,785000;1765535192614789;43,290000;1765535192614789;0
909;1765535192614790;-1683,045000;1765535192614790;257,790000;1765535192614790;0
910;1765535192614791;-1782,690000;1765535192614791;190,710000;1765535192614791;0
911;1765535192614792;-1717,170000;1765535192614792;219,765000;1765535192614792;0
912;1765535192614793;-1567,215000;1765535192614793;289,185000;1765535192614793;0
913;1765535192614794;-1738,425000;1765535192614794;197,730000;1765535192614794;0
914;1765535192614795;-1718,730000;1765535192614795;295,230000;1765535192614795;0
915;1765535192614796;-1910,610000;1765535192614796;251,745000;1765535192614796;0
916;1765535192614797;-2005,575000;1765535192614797;112,710000;1765535192614797;0
917;1765535192614798;-1635,855000;1765535192614798;209,625000;1765535192614798;0
918;1765535192614799;-1849,185000;1765535192614799;132,210000;1765535192614799;0
919;1765535192614800;-1545,570000;1765535192614800;234,780000;1765535192614800;0
920;1765535192614801;-1546,545000;1765535192614801;301,470000;1765535192614801;0
921;1765535192614802;-1980,420000;1765535192614802;31,005000;1765535192614802;0
922;1765535192614803;-1794,585000;1765535192614803;195,780000;1765535192614803;0
923;1765535192617902;-3923,010000;1765535192617902;195,780000;1765535192614803;0
924;1765535192617904;-3923,010000;1765535192617902;20,670000;1765535192617904;0
925;1765535192617905;-3923,010000;1765535192617902;357,435000;1765535192617905;0
926;1765535192617906;-658,125000;1765535192617906;330,135000;1765535192617906;0
927;1765535192617907;-756,015000;1765535192617907;306,540000;1765535192617907;0
928;1765535192617908;-1097,460000;1765535192617908;307,710000;1765535192617908;0
929;1765535192617909;-815,100000;1765535192617909;120,510000;1765535192617909;0
930;1765535192617910;-632,580000;1765535192617910;338,910000;1765535192617910;0
931;1765535192617911;-620,490000;1765535192617911;369,135000;1765535192617911;0
932;1765535192617912;-994,890000;1765535192617912;216,060000;1765535192617912;0
933;1765535192617913;-1027,650000;1765535192617913;190,320000;1765535192617913;0
934;1765535192617914;-947,700000;1765535192617914;171,015000;1765535192617914;0
935;1765535192617915;-816,855000;1765535192617915;288,795000;1765535192617915;0
936;1765535192617916;-1098,435000;1765535192617916;162,630000;1765535192617916;0
937;1765535192617917;-1157,130000;1765535192617917;253,890000;1765535192617917;0
938;1765535192617918;-1261,455000;1765535192617918;164,190000;1765535192617918;0
939;1765535192617919;-1126,905000;1765535192617919;327,990000;1765535192617919;0
940;1765535192617920;-1218,945000;1765535192617920;391,170000;1765535192617920;0
941;1765535192617921;-1196,325000;1765535192617921;163,215000;1765535192617921;0
942;1765535192617922;-1110,525000;1765535192617922;276,510000;1765535192617922;0
943;1765535192617923;-966,420000;1765535192617923;297,375000;1765535192617923;0
944;1765535192617924;-1069,185000;1765535192617924;103,935000;1765535192617924;0
945;1765535192617925;-1356,225000;1765535192617925;146,055000;1765535192617925;0
946;1765535192617926;-1067,430000;1765535192617926;168,675000;1765535192617926;0
947;1765535192617927;-1243,905000;1765535192617927;108,615000;1765535192617927;0
948;1765535192617928;-1193,010000;1765535192617928;212,160000;1765535192617928;0
949;1765535192617929;-902,265000;1765535192617929;423,150000;1765535192617929;0
950;1765535192617930;-1246,050000;1765535192617930;243,945000;1765535192617930;0
951;1765535192617931;-1269,645000;1765535192617931;218,010000;1765535192617931;0
952;1765535192617933;-1206,075000;1765535192617933;218,010000;1765535192617931;0
953;1765535192617934;-994,110000;1765535192617934;247,455000;1765535192617934;0
954;1765535192617935;-1309,425000;1765535192617935;210,990000;1765535192617935;0
955;1765535192617936;-1056,315000;1765535192617936;353,925000;1765535192617936;0
956;1765535192617937;-1265,745000;1765535192617937;161,070000;1765535192617937;0
957;1765535192676451;-961,935000;1765535192676451;161,070000;1765535192617937;0
958;1765535192676452;-961,935000;1765535192676451;-23,985000;1765535192676452;0
959;1765535192676453;-768,690000;1765535192676453;179,205000;1765535192676453;0
960;1765535192676454;-501,150000;1765535192676454;265,200000;1765535192676454;0
961;1765535192676455;-428,025000;1765535192676455;270,855000;1765535192676455;0
962;1765535192676456;-275,925000;1765535192676456;342,810000;1765535192676456;0
963;1765535192676457;-513,240000;1765535192676457;179,010000;1765535192676457;0
964;1765535192676458;-532,350000;1765535192676458;-201,240000;1765535192676458;0
965;1765535192676459;-2070,120000;1765535192676459;-1343,550000;1765535192676459;0
966;1765535192676460;-243,945000;1765535192676460;-233,610000;1765535192676460;0
967;1765535192676461;-1663,545000;1765535192676461;-1216,800000;1765535192676461;0
968;1765535192676462;-210,210000;1765535192676462;-1069,770000;1765535192676462;0
969;1765535192676463;415,740000;1765535192676463;475,215000;1765535192676463;0
970;1765535192676464;862,290000;1765535192676464;340,860000;1765535192676464;0
971;1765535192676465;755,430000;1765535192676465;442,845000;1765535192676465;0
972;1765535192676466;478,335000;1765535192676466;395,070000;1765535192676466;0
973;1765535192676467;951,990000;1765535192676467;392,145000;1765535192676467;0
974;1765535192676468;894,270000;1765535192676468;295,230000;1765535192676468;0
975;1765535192676469;1072,305000;1765535192676469;455,520000;1765535192676469;0
976;1765535192676470;757,965000;1765535192676470;207,870000;1765535192676470;0
977;1765535192676472;757,965000;1765535192676470;145,080000;1765535192676472;0
978;1765535192676473;1050,270000;1765535192676473;295,035000;1765535192676473;0
979;1765535192676474;1080,495000;1765535192676474;207,870000;1765535192676474;0
980;1765535192676475;1314,885000;1765535192676475;369,720000;1765535192676475;0
981;1765535192676476;1240,590000;1765535192676476;166,530000;1765535192676476;0
982;1765535192676477;1223,430000;1765535192676477;274,170000;1765535192676477;0
983;1765535192735552;-3912,675000;1765535192735552;274,170000;1765535192676477;0
984;1765535192735558;-3912,675000;1765535192735552;178,620000;1765535192735558;0
985;1765535192735560;1571,310000;1765535192735560;178,620000;1765535192735558;0
986;1765535192735561;1571,310000;1765535192735560;182,910000;1765535192735561;0
987;1765535192735562;1568,190000;1765535192735562;182,910000;1765535192735561;0
988;1765535192735563;1568,190000;1765535192735562;216,255000;1765535192735563;0
989;1765535192735565;1568,190000;1765535192735562;163,995000;1765535192735565;0
990;1765535192735566;1518,855000;1765535192735566;163,995000;1765535192735565;0
991;1765535192735567;1518,855000;1765535192735566;275,535000;1765535192735567;0
992;1765535192735569;1586,910000;1765535192735569;275,535000;1765535192735567;0
993;1765535192735570;1586,910000;1765535192735569;317,070000;1765535192735570;0
994;1765535192735571;1801,215000;1765535192735571;317,070000;1765535192735570;0
995;1765535192735572;1801,215000;1765535192735571;328,575000;1765535192735572;0
996;1765535192735573;1674,270000;1765535192735573;328,575000;1765535192735572;0
997;1765535192735574;1674,270000;1765535192735573;242,970000;1765535192735574;0
998;1765535192735575;1812,915000;1765535192735575;242,970000;1765535192735574;0
999;1765535192735576;1812,915000;1765535192735575;245,505000;1765535192735576;0
1000;1765535192735577;1776,645000;1765535192735577;245,505000;1765535192735576;0
1001;1765535192735578;1776,645000;1765535192735577;262,665000;1765535192735578;0
1002;1765535192735579;1930,890000;1765535192735579;262,665000;1765535192735578;0
1003;1765535192735581;1930,890000;1765535192735579;294,060000;1765535192735581;0
1004;1765535192735582;1930,890000;1765535192735579;270,465000;1765535192735582;0
1005;1765535192735584;1864,590000;1765535192735584;270,465000;1765535192735582;0
1006;1765535192735585;1864,590000;1765535192735584;284,895000;1765535192735585;0
1007;1765535192735586;1877,460000;1765535192735586;284,895000;1765535192735585;0
1008;1765535192735587;1877,460000;1765535192735586;302,835000;1765535192735587;0
1009;1765535192735588;1726,140000;1765535192735588;302,835000;1765535192735587;0
1010;1765535192735589;1799,655000;1765535192735589;151,515000;1765535192735589;0
1011;1765535192735590;1799,655000;1765535192735589;251,160000;1765535192735590;0
1012;1765535192735591;1765,725000;1765535192735591;251,160000;1765535192735590;0
1013;1765535192735592;1765,725000;1765535192735591;151,515000;1765535192735592;0
1014;1765535192735593;1901,250000;1765535192735593;151,515000;1765535192735592;0
1015;1765535192735594;1901,250000;1765535192735593;240,435000;1765535192735594;0
1016;1765535192735595;1842,945000;1765535192735595;240,435000;1765535192735594;0
1017;1765535192735596;1842,945000;1765535192735595;241,215000;1765535192735596;0
1018;1765535192735598;1842,945000;1765535192735595;207,675000;1765535192735598;0
1019;1765535192735599;2031,900000;1765535192735599;207,675000;1765535192735598;0
1020;1765535192735600;2031,900000;1765535192735599;235,755000;1765535192735600;0
1021;1765535192735601;1930,110000;1765535192735601;235,755000;1765535192735600;0
1022;1765535192735602;1930,110000;1765535192735601;203,190000;1765535192735602;0
1023;1765535192735604;2298,465000;1765535192735604;203,190000;1765535192735602;0
1024;1765535192735605;2298,465000;1765535192735604;390,000000;1765535192735605;0
1025;1765535192735606;1808,430000;1765535192735606;390,000000;1765535192735605;0
1026;1765535192735607;1808,430000;1765535192735606;90,870000;1765535192735607;0
1027;1765535192735608;1996,800000;1765535192735608;241,215000;1765535192735608;0
1028;1765535192735610;2128,620000;1765535192735610;151,710000;1765535192735610;0
1029;1765535192735611;1865,175000;1765535192735611;151,710000;1765535192735610;0
1030;1765535192735612;1865,175000;1765535192735611;-171,210000;1765535192735612;0
1031;1765535192735613;1865,175000;1765535192735611;-1164,735000;1765535192735613;0
1032;1765535192735615;557,895000;1765535192735615;-1164,735000;1765535192735613;0
1033;1765535192735616;429,390000;1765535192735616;-1127,490000;1765535192735616;0
1034;1765535192735617;429,390000;1765535192735616;-1056,510000;1765535192735617;0
1035;1765535192735618;1898,715000;1765535192735618;-1056,510000;1765535192735617;0
1036;1765535192735619;1898,715000;1765535192735618;-135,330000;1765535192735619;0
1037;1765535192735620;2541,630000;1765535192735620;-135,330000;1765535192735619;0
1038;1765535192735621;2541,630000;1765535192735620;447,915000;1765535192735621;0
1039;1765535192735622;2422,680000;1765535192735622;447,915000;1765535192735621;0
1040;1765535192735623;2254,200000;1765535192735623;396,435000;1765535192735623;0
1041;1765535192735624;2254,200000;1765535192735623;223,470000;1765535192735624;0
1042;1765535192735625;2279,550000;1765535192735625;223,470000;1765535192735624;0
1043;1765535192735626;2279,550000;1765535192735625;282,750000;1765535192735626;0
1044;1765535192735627;2279,550000;1765535192735625;263,640000;1765535192735627;0
1045;1765535192735628;2354,430000;1765535192735628;263,640000;1765535192735627;0
1046;1765535192735629;2354,430000;1765535192735628;342,225000;1765535192735629;0
1047;1765535192735630;2479,620000;1765535192735630;332,280000;1765535192735630;0
1048;1765535192735631;2628,210000;1765535192735631;332,280000;1765535192735630;0
1049;1765535192735632;2628,210000;1765535192735631;416,910000;1765535192735632;0
1050;1765535192735633;2791,815000;1765535192735633;416,910000;1765535192735632;0
1051;1765535192735634;2360,670000;1765535192735634;429,195000;1765535192735634;0
1052;1765535192735635;2360,670000;1765535192735634;258,960000;1765535192735635;0
1053;1765535192735636;2347,800000;1765535192735636;258,960000;1765535192735635;0
1054;1765535192735637;2347,800000;1765535192735636;206,310000;1765535192735637;0
1055;1765535192794842;-3908,385000;1765535192794842;206,310000;1765535192735637;0
1056;1765535192794844;2632,695000;1765535192794844;226,200000;1765535192794844;0
1057;1765535192794845;3016,065000;1765535192794845;354,510000;1765535192794845;0
1058;1765535192794846;2660,190000;1765535192794846;293,670000;1765535192794846;0
1059;1765535192794847;2747,550000;1765535192794847;269,880000;1765535192794847;0
1060;1765535192794848;2796,495000;1765535192794848;286,455000;1765535192794848;0
1061;1765535192794849;2602,275000;1765535192794849;176,670000;1765535192794849;0
1062;1765535192794850;2724,150000;1765535192794850;273,390000;1765535192794850;0
1063;1765535192794851;2593,695000;1765535192794851;112,710000;1765535192794851;0
1064;1765535192794852;2899,455000;1765535192794852;332,670000;1765535192794852;0
1065;1765535192794853;3068,910000;1765535192794853;234,195000;1765535192794853;0
1066;1765535192794854;2918,565000;1765535192794854;203,580000;1765535192794854;0
1067;1765535192794855;2928,510000;1765535192794855;320,580000;1765535192794855;0
1068;1765535192794856;2874,495000;1765535192794856;273,390000;1765535192794856;0
1069;1765535192794857;2933,580000;1765535192794857;276,705000;1765535192794857;0
1070;1765535192794858;3030,690000;1765535192794858;420,615000;1765535192794858;0
1071;1765535192794859;2841,345000;1765535192794859;145,080000;1765535192794859;0
1072;1765535192794860;2881,125000;1765535192794860;216,645000;1765535192794860;0
1073;1765535192794861;3058,965000;1765535192794861;285,090000;1765535192794861;0
1074;1765535192794862;2881,710000;1765535192794862;184,860000;1765535192794862;0
1075;1765535192794863;2884,830000;1765535192794863;266,565000;1765535192794863;0
1076;1765535192794864;3211,065000;1765535192794864;176,670000;1765535192794864;0
1077;1765535192794865;3360,630000;1765535192794865;419,055000;1765535192794865;0
1078;1765535192794866;3093,090000;1765535192794866;290,160000;1765535192794866;0
1079;1765535192794867;2934,750000;1765535192794867;92,430000;1765535192794867;0
1080;1765535192794868;3128,190000;1765535192794868;366,795000;1765535192794868;0
1081;1765535192794869;3128,190000;1765535192794868;210,015000;1765535192794869;0
1082;1765535192797945;-3907,605000;1765535192797945;210,015000;1765535192794869;0
1083;1765535192797947;-3907,605000;1765535192797945;39,000000;1765535192797947;0
1084;1765535192797949;3302,910000;1765535192797949;407,160000;1765535192797949;0
1085;1765535192797950;3026,790000;1765535192797950;292,890000;1765535192797950;0
1086;1765535192797951;3049,605000;1765535192797951;282,360000;1765535192797951;0
1087;1765535192797952;2936,895000;1765535192797952;194,610000;1765535192797952;0
1088;1765535192797953;3008,850000;1765535192797953;217,230000;1765535192797953;0
1089;1765535192797954;3271,905000;1765535192797954;395,070000;1765535192797954;0
1090;1765535192797955;2961,660000;1765535192797955;236,730000;1765535192797955;0
1091;1765535192797956;2953,665000;1765535192797956;206,700000;1765535192797956;0
1092;1765535192797957;3142,620000;1765535192797957;281,385000;1765535192797957;0
1093;1765535192797958;2883,855000;1765535192797958;430,950000;1765535192797958;0
1094;1765535192797959;2200,770000;1765535192797959;167,895000;1765535192797959;0
1095;1765535192797960;2479,230000;1765535192797960;303,615000;1765535192797960;0
1096;1765535192797961;2481,570000;1765535192797961;317,655000;1765535192797961;0
1097;1765535192797962;2283,255000;1765535192797962;241,215000;1765535192797962;0
1098;1765535192797963;2710,305000;1765535192797963;337,350000;1765535192797963;0
1099;1765535192797964;2647,710000;1765535192797964;205,920000;1765535192797964;0
1100;1765535192797965;2590,575000;1765535192797965;75,855000;1765535192797965;0
1101;1765535192797966;2810,730000;1765535192797966;182,715000;1765535192797966;0
1102;1765535192797967;2697,630000;1765535192797967;250,380000;1765535192797967;0
1103;1765535192797968;2447,835000;1765535192797968;134,940000;1765535192797968;0
1104;1765535192797969;2454,465000;1765535192797969;467,025000;1765535192797969;0
1105;1765535192797970;2695,875000;1765535192797970;368,550000;1765535192797970;0
1106;1765535192797971;2949,960000;1765535192797971;454,740000;1765535192797971;0
1107;1765535192797972;2709,720000;1765535192797972;293,085000;1765535192797972;0
1108;1765535192797973;2446,275000;1765535192797973;356,655000;1765535192797973;0
1109;1765535192797974;2446,275000;1765535192797973;178,815000;1765535192797974;0
1110;1765535192914913;-3909,165000;1765535192914913;178,815000;1765535192797974;0
1111;1765535192914915;-3909,165000;1765535192914913;-10,530000;1765535192914915;0
1112;1765535192914916;2582,385000;1765535192914916;284,895000;1765535192914916;0
1113;1765535192914917;2628,795000;1765535192914917;284,895000;1765535192914916;0
1114;1765535192914919;2350,530000;1765535192914919;87,945000;1765535192914919;0
1115;1765535192914920;1099,215000;1765535192914920;-97,890000;1765535192914920;0
1116;1765535192914921;1177,020000;1765535192914921;-1061,190000;1765535192914921;0
1117;1765535192914922;2261,025000;1765535192914922;-1000,155000;1765535192914922;0
1118;1765535192914923;1061,190000;1765535192914923;-1010,685000;1765535192914923;0
1119;1765535192914924;1983,150000;1765535192914924;-973,245000;1765535192914924;0
1120;1765535192914925;2604,615000;1765535192914925;268,125000;1765535192914925;0
1121;1765535192914926;2374,710000;1765535192914926;305,565000;1765535192914926;0
1122;1765535192914927;2133,885000;1765535192914927;257,985000;1765535192914927;0
1123;1765535192914928;1770,990000;1765535192914928;208,845000;1765535192914928;0
1124;1765535192914929;1867,320000;1765535192914929;220,350000;1765535192914929;0
1125;1765535192914930;1943,370000;1765535192914930;340,080000;1765535192914930;0
1126;1765535192914934;1807,455000;1765535192914934;340,080000;1765535192914930;0
1127;1765535192914935;2023,320000;1765535192914935;276,705000;1765535192914935;0
1128;1765535192914936;1830,270000;1765535192914936;307,710000;1765535192914936;0
1129;1765535192914937;1825,200000;1765535192914937;325,845000;1765535192914937;0
1130;1765535192914938;1729,065000;1765535192914938;341,055000;1765535192914938;0
1131;1765535192914939;1847,430000;1765535192914939;91,455000;1765535192914939;0
1132;1765535192914940;2013,375000;1765535192914940;272,610000;1765535192914940;0
1133;1765535192914941;1864,395000;1765535192914941;315,315000;1765535192914941;0
1134;1765535192914942;1484,535000;1765535192914942;275,340000;1765535192914942;0
1135;1765535192914943;1882,335000;1765535192914943;283,335000;1765535192914943;0
1136;1765535192914944;1932,450000;1765535192914944;313,560000;1765535192914944;0
1137;1765535192914945;1823,055000;1765535192914945;332,670000;1765535192914945;0
1138;1765535192914946;1930,110000;1765535192914946;316,290000;1765535192914946;0
1139;1765535192914947;2198,430000;1765535192914947;291,135000;1765535192914947;0
1140;1765535192914948;1936,350000;1765535192914948;241,020000;1765535192914948;0
1141;1765535192914949;1936,350000;1765535192914948;280,995000;1765535192914949;0
1142;1765535192917927;-3912,675000;1765535192917927;280,995000;1765535192914949;0
1143;1765535192917929;-3912,675000;1765535192917927;-58,110000;1765535192917929;0
1144;1765535192917930;1992,510000;1765535192917930;186,810000;1765535192917930;0
1145;1765535192917931;2013,570000;1765535192917931;295,425000;1765535192917931;0
1146;1765535192917932;1661,400000;1765535192917932;332,670000;1765535192917932;0
1147;1765535192917933;1653,990000;1765535192917933;95,355000;1765535192917933;0
1148;1765535192917934;1972,230000;1765535192917934;303,615000;1765535192917934;0
1149;1765535192917935;1688,310000;1765535192917935;256,230000;1765535192917935;0
1150;1765535192917936;2007,135000;1765535192917936;157,950000;1765535192917936;0
1151;1765535192917937;1589,445000;1765535192917937;234,780000;1765535192917937;0
1152;1765535192917938;-216,840000;1765535192917938;-425,490000;1765535192917938;0
1153;1765535192917939;-180,180000;1765535192917939;-1077,960000;1765535192917939;0
1154;1765535192917940;1469,910000;1765535192917940;411,840000;1765535192917940;0
1155;1765535192917941;1320,735000;1765535192917941;251,160000;1765535192917941;0
1156;1765535192917942;1051,830000;1765535192917942;280,215000;1765535192917942;0
1157;1765535192917943;1005,420000;1765535192917943;284,895000;1765535192917943;0
1158;1765535192917944;1133,730000;1765535192917944;349,050000;1765535192917944;0
1159;1765535192917945;249,015000;1765535192917945;239,070000;1765535192917945;0
1160;1765535192917946;344,175000;1765535192917946;178,230000;1765535192917946;0
1161;1765535192917947;436,605000;1765535192917947;403,455000;1765535192917947;0
1162;1765535192917948;305,370000;1765535192917948;340,860000;1765535192917948;0
1163;1765535192917949;-10,530000;1765535192917949;335,790000;1765535192917949;0
1164;1765535192917950;148,590000;1765535192917950;326,625000;1765535192917950;0
1165;1765535192917951;88,140000;1765535192917951;326,430000;1765535192917951;0
1166;1765535192917952;126,360000;1765535192917952;286,065000;1765535192917952;0
1167;1765535192917953;-82,290000;1765535192917953;413,985000;1765535192917953;0
1168;1765535192917954;-133,380000;1765535192917954;320,775000;1765535192917954;0
1169;1765535192917955;-239,265000;1765535192917955;200,655000;1765535192917955;0
1170;1765535192917956;-54,015000;1765535192917956;341,640000;1765535192917956;0
1171;1765535192976417;-3921,450000;1765535192976417;341,640000;1765535192917956;0
1172;1765535192976421;-3921,450000;1765535192976417;41,535000;1765535192976421;0
1173;1765535192976422;-246,090000;1765535192976422;41,535000;1765535192976421;0
1174;1765535192976423;-246,090000;1765535192976422;318,630000;1765535192976423;0
1175;1765535192976424;-600,210000;1765535192976424;200,655000;1765535192976424;0
1176;1765535192976425;-491,985000;1765535192976425;200,655000;1765535192976424;0
1177;1765535192976426;-491,985000;1765535192976425;250,965000;1765535192976426;0
1178;1765535192976427;-347,490000;1765535192976427;250,965000;1765535192976426;0
1179;1765535192976428;-582,465000;1765535192976428;386,100000;1765535192976428;0
1180;1765535192976429;-582,465000;1765535192976428;195,390000;1765535192976429;0
1181;1765535192976430;-589,290000;1765535192976430;210,210000;1765535192976430;0
1182;1765535192976431;-732,225000;1765535192976431;210,210000;1765535192976430;0
1183;1765535192976432;-857,220000;1765535192976432;190,710000;1765535192976432;0
1184;1765535192976433;-857,220000;1765535192976432;183,105000;1765535192976433;0
1185;1765535192976434;-744,315000;1765535192976434;183,105000;1765535192976433;0
1186;1765535192976435;-790,530000;1765535192976435;235,170000;1765535192976435;0
1187;1765535192976436;-790,530000;1765535192976435;131,040000;1765535192976436;0
1188;1765535192976437;-905,385000;1765535192976437;185,055000;1765535192976437;0
1189;1765535192976438;-678,600000;1765535192976438;185,055000;1765535192976437;0
1190;1765535192976439;-602,745000;1765535192976439;268,125000;1765535192976439;0
1191;1765535192976440;-553,410000;1765535192976440;306,150000;1765535192976440;0
1192;1765535192976441;-553,410000;1765535192976440;233,415000;1765535192976441;0
1193;1765535192976442;-663,195000;1765535192976442;220,350000;1765535192976442;0
1194;1765535192976443;-868,725000;1765535192976443;228,540000;1765535192976443;0
1195;1765535192976444;-815,100000;1765535192976444;228,540000;1765535192976443;0
1196;1765535192976445;-945,945000;1765535192976445;231,270000;1765535192976445;0
1197;1765535192976446;-945,945000;1765535192976445;164,385000;1765535192976446;0
1198;1765535192976449;-1027,650000;1765535192976449;164,385000;1765535192976446;0
1199;1765535192976450;-771,810000;1765535192976450;138,840000;1765535192976450;0
1200;1765535192976451;-771,810000;1765535192976450;215,475000;1765535192976451;0
1201;1765535192976452;-841,230000;1765535192976452;176,475000;1765535192976452;0
1202;1765535192976453;-1315,860000;1765535192976453;-394,485000;1765535192976453;0
1203;1765535192976454;-2456,610000;1765535192976454;-394,485000;1765535192976453;0
1204;1765535192976455;-2680,080000;1765535192976455;-1139,385000;1765535192976455;0
1205;1765535192976456;-1158,885000;1765535192976456;-1164,930000;1765535192976456;0
1206;1765535192976457;-2405,520000;1765535192976457;-268,905000;1765535192976457;0
1207;1765535192976458;-2405,520000;1765535192976457;-1036,620000;1765535192976458;0
1208;1765535192976459;-2551,380000;1765535192976459;-1069,575000;1765535192976459;0
1209;1765535192976460;-1657,890000;1765535192976460;-242,970000;1765535192976460;0
1210;1765535192976461;-1006,785000;1765535192976461;-242,970000;1765535192976460;0
1211;1765535192976462;-1125,150000;1765535192976462;328,380000;1765535192976462;0
1212;1765535192976463;-1068,210000;1765535192976463;175,695000;1765535192976463;0
1213;1765535192976464;-1068,210000;1765535192976463;235,170000;1765535192976464;0
1214;1765535192976465;-1124,955000;1765535192976465;295,230000;1765535192976465;0
1215;1765535192976466;-1372,995000;1765535192976466;117,585000;1765535192976466;0
1216;1765535192976467;-1249,560000;1765535192976467;117,585000;1765535192976466;0
1217;1765535192976468;-1125,345000;1765535192976468;231,660000;1765535192976468;0
1218;1765535192976469;-1171,365000;1765535192976469;270,855000;1765535192976469;0
1219;1765535192976470;-1365,000000;1765535192976470;284,895000;1765535192976470;0
1220;1765535192976471;-1365,000000;1765535192976470;183,105000;1765535192976471;0
1221;1765535192976472;-1470,690000;1765535192976472;219,180000;1765535192976472;0
1222;1765535192976473;-1339,260000;1765535192976473;253,110000;1765535192976473;0
1223;1765535192976474;-1372,800000;1765535192976474;270,270000;1765535192976474;0
1224;1765535192976475;-1285,440000;1765535192976475;270,270000;1765535192976474;0
1225;1765535192976476;-1285,440000;1765535192976475;331,500000;1765535192976476;0
1226;1765535193035175;-3925,545000;1765535193035175;331,500000;1765535192976476;0
1227;1765535193035177;-3925,545000;1765535193035175;-10,530000;1765535193035177;0
1228;1765535193035178;-1384,305000;1765535193035178;291,330000;1765535193035178;0
1229;1765535193035179;-1380,015000;1765535193035179;320,775000;1765535193035179;0
1230;1765535193035180;-1540,305000;1765535193035180;240,240000;1765535193035180;0
1231;1765535193035181;-1732,770000;1765535193035181;147,615000;1765535193035181;0
1232;1765535193035182;-1543,035000;1765535193035182;265,980000;1765535193035182;0
1233;1765535193035183;-1425,450000;1765535193035183;331,110000;1765535193035183;0
1234;1765535193035184;-1580,475000;1765535193035184;234,780000;1765535193035184;0
1235;1765535193035185;-1663,545000;1765535193035185;268,125000;1765535193035185;0
1236;1765535193035186;-1880,970000;1765535193035186;219,765000;1765535193035186;0
1237;1765535193035187;-1534,065000;1765535193035187;279,630000;1765535193035187;0
1238;1765535193035188;-1664,520000;1765535193035188;233,025000;1765535193035188;0
1239;1765535193035189;-1914,900000;1765535193035189;108,030000;1765535193035189;0
1240;1765535193035190;-1806,285000;1765535193035190;328,575000;1765535193035190;0
1241;1765535193035191;-1676,025000;1765535193035191;258,375000;1765535193035191;0
1242;1765535193035192;-1820,130000;1765535193035192;243,165000;1765535193035192;0
1243;1765535193035193;-1551,615000;1765535193035193;353,340000;1765535193035193;0
1244;1765535193035194;-1745,250000;1765535193035194;353,340000;1765535193035193;0
1245;1765535193035195;-1732,575000;1765535193035195;216,450000;1765535193035195;0
1246;1765535193035281;-1490,580000;1765535193035281;244,920000;1765535193035281;0
1247;1765535193035282;-1975,740000;1765535193035282;382,395000;1765535193035282;0
1248;1765535193035283;-1931,280000;1765535193035283;239,655000;1765535193035283;0
1249;1765535193035284;-1757,145000;1765535193035284;215,475000;1765535193035284;0
1250;1765535193035285;-1941,225000;1765535193035285;181,935000;1765535193035285;0
1251;1765535193035286;-1912,170000;1765535193035286;232,245000;1765535193035286;0
1252;1765535193035287;-2073,045000;1765535193035287;83,070000;1765535193035287;0
1253;1765535193035288;-2340,000000;1765535193035288;-446,160000;1765535193035288;0
1254;1765535193035289;-3012,360000;1765535193035289;-1201,395000;1765535193035289;0
1255;1765535193035290;-1548,690000;1765535193035290;-183,495000;1765535193035290;0
1256;1765535193035291;-1381,965000;1765535193035291;320,190000;1765535193035291;0
1257;1765535193035292;-1645,605000;1765535193035292;192,855000;1765535193035292;0
1258;1765535193035293;-1531,920000;1765535193035293;310,830000;1765535193035293;0
1259;1765535193035294;-1802,190000;1765535193035294;231,855000;1765535193035294;0
1260;1765535193096110;-3926,715000;1765535193096110;231,855000;1765535193035294;0
1261;1765535193096112;-1697,475000;1765535193096112;-89,505000;1765535193096112;0
1262;1765535193096113;-1758,120000;1765535193096113;271,050000;1765535193096113;0
1263;1765535193096114;-1756,755000;1765535193096114;334,815000;1765535193096114;0
1264;1765535193096115;-1913,145000;1765535193096115;160,095000;1765535193096115;0
1265;1765535193096116;-1822,470000;1765535193096116;303,030000;1765535193096116;0
1266;1765535193096117;-1846,065000;1765535193096117;249,990000;1765535193096117;0
1267;1765535193096118;-1761,435000;1765535193096118;291,525000;1765535193096118;0
1268;1765535193096119;-1848,210000;1765535193096119;313,950000;1765535193096119;0
1269;1765535193096120;-2123,355000;1765535193096120;195,585000;1765535193096120;0
1270;1765535193096121;-1975,740000;1765535193096121;116,415000;1765535193096121;0
1271;1765535193096122;-2009,865000;1765535193096122;181,935000;1765535193096122;0
1272;1765535193096123;-2029,755000;1765535193096123;-15,990000;1765535193096123;0
1273;1765535193096124;-1661,985000;1765535193096124;118,365000;1765535193096124;0
1274;1765535193096125;-1983,345000;1765535193096125;181,545000;1765535193096125;0
1275;1765535193096126;-1834,365000;1765535193096126;247,650000;1765535193096126;0
1276;1765535193096127;-2096,835000;1765535193096127;345,345000;1765535193096127;0
1277;1765535193096128;-1817,595000;1765535193096128;302,445000;1765535193096128;0
1278;1765535193096129;-2080,065000;1765535193096129;124,995000;1765535193096129;0
1279;1765535193096130;-1814,865000;1765535193096130;235,950000;1765535193096130;0
1280;1765535193096131;-1961,505000;1765535193096131;222,495000;1765535193096131;0
1281;1765535193096132;-1940,640000;1765535193096132;148,785000;1765535193096132;0
1282;1765535193096133;-1977,105000;1765535193096133;166,530000;1765535193096133;0
1283;1765535193096134;-2096,835000;1765535193096134;120,510000;1765535193096134;0
1284;1765535193096135;-1978,665000;1765535193096135;157,170000;1765535193096135;0
1285;1765535193096136;-1978,665000;1765535193096135;208,260000;1765535193096136;0
1286;1765535193099191;-3923,205000;1765535193099191;208,260000;1765535193096136;0
1287;1765535193099192;-993,915000;1765535193099192;130,065000;1765535193099192;0
1288;1765535193099193;-790,530000;1765535193099193;379,470000;1765535193099193;0
1289;1765535193099194;-1248,975000;1765535193099194;161,070000;1765535193099194;0
1290;1765535193099195;-1000,350000;1765535193099195;256,815000;1765535193099195;0
1291;1765535193099196;-991,185000;1765535193099196;271,245000;1765535193099196;0
1292;1765535193099197;-1335,750000;1765535193099197;152,880000;1765535193099197;0
1293;1765535193099198;-1325,025000;1765535193099198;326,235000;1765535193099198;0
1294;1765535193099199;-1325,025000;1765535193099198;306,735000;1765535193099199;0
1295;1765535193099200;-1055,535000;1765535193099200;366,015000;1765535193099200;0
1296;1765535193099201;-1144,650000;1765535193099201;367,575000;1765535193099201;0
1297;1765535193099202;-1015,560000;1765535193099202;251,745000;1765535193099202;0
1298;1765535193099203;-1099,410000;1765535193099203;407,550000;1765535193099203;0
1299;1765535193099204;-1252,290000;1765535193099204;325,260000;1765535193099204;0
1300;1765535193099205;-1431,690000;1765535193099205;214,305000;1765535193099205;0
1301;1765535193099206;-1171,950000;1765535193099206;236,145000;1765535193099206;0
1302;1765535193099207;-1493,505000;1765535193099207;411,840000;1765535193099207;0
1303;1765535193099208;-1493,505000;1765535193099207;382,590000;1765535193099208;0
1304;1765535193099209;-1368,510000;1765535193099209;327,795000;1765535193099209;0
1305;1765535193099210;-1208,610000;1765535193099210;146,055000;1765535193099210;0
1306;1765535193099211;-1333,215000;1765535193099211;257,985000;1765535193099211;0
1307;1765535193099212;-1460,355000;1765535193099212;365,820000;1765535193099212;0
1308;1765535193099213;-1260,675000;1765535193099213;265,590000;1765535193099213;0
1309;1765535193099214;-1185,600000;1765535193099214;357,630000;1765535193099214;0
1310;1765535193099215;-1166,685000;1765535193099215;297,375000;1765535193099215;0
1311;1765535193099216;-1322,490000;1765535193099216;207,870000;1765535193099216;0
1312;1765535193099217;-1322,490000;1765535193099216;203,775000;1765535193099217;0
1313;1765535193155329;-3923,985000;1765535193155329;203,775000;1765535193099217;0
1314;1765535193155332;-3923,985000;1765535193155329;47,580000;1765535193155332;0
1315;1765535193155333;-1169,220000;1765535193155333;47,580000;1765535193155332;0
1316;1765535193155334;-1194,180000;1765535193155334;207,870000;1765535193155334;0
1317;1765535193155335;-1194,180000;1765535193155334;219,570000;1765535193155335;0
1318;1765535193155336;-1252,290000;1765535193155336;148,005000;1765535193155336;0
1319;1765535193155337;-1244,295000;1765535193155337;148,005000;1765535193155336;0
1320;1765535193155338;-1443,390000;1765535193155338;103,740000;1765535193155338;0
1321;1765535193155339;-1444,560000;1765535193155339;64,740000;1765535193155339;0
1322;1765535193155340;-1444,560000;1765535193155339;203,190000;1765535193155340;0
1323;1765535193155341;-1444,560000;1765535193155339;307,905000;1765535193155341;0
1324;1765535193155342;-1051,050000;1765535193155342;327,015000;1765535193155342;0
1325;1765535193155343;-1369,485000;1765535193155343;327,015000;1765535193155342;0
1326;1765535193155344;-1433,445000;1765535193155344;126,360000;1765535193155344;0
1327;1765535193155345;-1433,445000;1765535193155344;-264,225000;1765535193155345;0
1328;1765535193155346;-2153,190000;1765535193155346;-1039,350000;1765535193155346;0
1329;1765535193155347;-1808,820000;1765535193155347;-800,475000;1765535193155347;0
1330;1765535193155348;-891,540000;1765535193155348;-266,370000;1765535193155348;0
1331;1765535193155349;-1962,675000;1765535193155349;-266,370000;1765535193155348;0
1332;1765535193155350;-1962,675000;1765535193155349;-1119,300000;1765535193155350;0
1333;1765535193155352;-1962,675000;1765535193155349;-1177,410000;1765535193155352;0
1334;1765535193155353;-1961,115000;1765535193155353;-1177,410000;1765535193155352;0
1335;1765535193155354;-694,785000;1765535193155354;-1017,705000;1765535193155354;0
1336;1765535193155355;-285,090000;1765535193155355;-219,570000;1765535193155355;0
1337;1765535193155356;-285,090000;1765535193155355;222,495000;1765535193155356;0
1338;1765535193155357;-104,130000;1765535193155357;327,600000;1765535193155357;0
1339;1765535193155358;108,615000;1765535193155358;359,190000;1765535193155358;0
1340;1765535193155359;85,020000;1765535193155359;390,585000;1765535193155359;0
1341;1765535193155360;291,915000;1765535193155360;490,815000;1765535193155360;0
1342;1765535193155361;291,915000;1765535193155360;345,150000;1765535193155361;0
1343;1765535193155362;190,320000;1765535193155362;361,335000;1765535193155362;0
1344;1765535193155363;217,815000;1765535193155363;133,575000;1765535193155363;0
1345;1765535193155364;270,465000;1765535193155364;338,910000;1765535193155364;0
1346;1765535193155365;392,730000;1765535193155365;335,010000;1765535193155365;0
1347;1765535193155366;128,895000;1765535193155366;362,115000;1765535193155366;0
1348;1765535193155367;313,560000;1765535193155367;277,095000;1765535193155367;0
1349;1765535193155368;313,560000;1765535193155367;319,215000;1765535193155368;0
1350;1765535193155369;600,990000;1765535193155369;376,155000;1765535193155369;0
1351;1765535193155370;696,150000;1765535193155370;434,655000;1765535193155370;0
1352;1765535193155371;582,075000;1765535193155371;327,015000;1765535193155371;0
1353;1765535193155372;386,490000;1765535193155372;366,405000;1765535193155372;0
1354;1765535193155373;841,815000;1765535193155373;407,745000;1765535193155373;0
1355;1765535193155374;457,470000;1765535193155374;203,970000;1765535193155374;0
1356;1765535193155375;613,470000;1765535193155375;350,220000;1765535193155375;0
1357;1765535193155376;964,080000;1765535193155376;394,680000;1765535193155376;0
1358;1765535193155380;852,150000;1765535193155380;394,680000;1765535193155376;0
1359;1765535193155381;881,010000;1765535193155381;458,055000;1765535193155381;0
1360;1765535193155382;881,010000;1765535193155381;366,990000;1765535193155382;0
1361;1765535193217397;-3915,600000;1765535193217397;366,990000;1765535193155382;0
1362;1765535193217402;-3915,600000;1765535193217397;66,495000;1765535193217402;0
1363;1765535193217403;1206,855000;1765535193217403;66,495000;1765535193217402;0
1364;1765535193217405;1206,855000;1765535193217403;253,500000;1765535193217405;0
1365;1765535193217406;1118,910000;1765535193217406;253,500000;1765535193217405;0
1366;1765535193217407;1118,910000;1765535193217406;280,995000;1765535193217407;0
1367;1765535193217408;1299,870000;1765535193217408;280,995000;1765535193217407;0
1368;1765535193217409;1299,870000;1765535193217408;346,125000;1765535193217409;0
1369;1765535193217411;1274,910000;1765535193217411;346,125000;1765535193217409;0
1370;1765535193217412;1274,910000;1765535193217411;329,745000;1765535193217412;0
1371;1765535193217413;1306,695000;1765535193217413;329,745000;1765535193217412;0
1372;1765535193217414;1306,695000;1765535193217413;365,820000;1765535193217414;0
1373;1765535193217415;1295,775000;1765535193217415;365,820000;1765535193217414;0
1374;1765535193217416;1295,775000;1765535193217415;340,080000;1765535193217416;0
1375;1765535193217417;1393,275000;1765535193217417;340,080000;1765535193217416;0
1376;1765535193217418;1393,275000;1765535193217417;302,055000;1765535193217418;0
1377;1765535193217419;1410,240000;1765535193217419;302,055000;1765535193217418;0
1378;1765535193217420;1410,240000;1765535193217419;283,335000;1765535193217420;0
1379;1765535193217421;1570,140000;1765535193217421;283,335000;1765535193217420;0
1380;1765535193217422;1570,140000;1765535193217421;410,085000;1765535193217422;0
1381;1765535193217423;1570,140000;1765535193217421;245,895000;1765535193217423;0
1382;1765535193217425;1335,165000;1765535193217425;245,895000;1765535193217423;0
1383;1765535193217426;1335,165000;1765535193217425;201,630000;1765535193217426;0
1384;1765535193217427;1380,990000;1765535193217427;201,630000;1765535193217426;0
1385;1765535193217428;1380,990000;1765535193217427;179,790000;1765535193217428;0
1386;1765535193217429;1548,300000;1765535193217429;261,105000;1765535193217429;0
1387;1765535193217430;1620,255000;1765535193217430;261,105000;1765535193217429;0
1388;1765535193217431;1620,255000;1765535193217430;419,835000;1765535193217431;0
1389;1765535193217432;1579,500000;1765535193217432;419,835000;1765535193217431;0
1390;1765535193217433;1579,500000;1765535193217432;320,775000;1765535193217433;0
1391;1765535193217434;1755,975000;1765535193217434;320,775000;1765535193217433;0
1392;1765535193217435;1755,975000;1765535193217434;297,570000;1765535193217435;0
1393;1765535193217436;1718,145000;1765535193217436;297,570000;1765535193217435;0
1394;1765535193217437;1718,145000;1765535193217436;289,380000;1765535193217437;0
1395;1765535193217438;1571,505000;1765535193217438;289,380000;1765535193217437;0
1396;1765535193217439;1571,505000;1765535193217438;235,755000;1765535193217439;0
1397;1765535193217440;1604,070000;1765535193217440;235,755000;1765535193217439;0
1398;1765535193217441;1604,070000;1765535193217440;285,870000;1765535193217441;0
1399;1765535193217442;1884,480000;1765535193217442;285,870000;1765535193217441;0
1400;1765535193217443;1636,440000;1765535193217443;415,350000;1765535193217443;0
1401;1765535193217445;1636,440000;1765535193217443;241,605000;1765535193217445;0
1402;1765535193217446;1581,450000;1765535193217446;241,605000;1765535193217445;0
1403;1765535193217447;1581,450000;1765535193217446;212,940000;1765535193217447;0
1404;1765535193217448;1929,330000;1765535193217448;212,940000;1765535193217447;0
1405;1765535193217449;1555,710000;1765535193217449;273,000000;1765535193217449;0
1406;1765535193217450;1555,710000;1765535193217449;-216,450000;1765535193217450;0
1407;1765535193217451;406,770000;1765535193217451;-216,450000;1765535193217450;0
1408;1765535193217452;406,770000;1765535193217451;-1064,310000;1765535193217452;0
1409;1765535193217453;268,710000;1765535193217453;-1064,310000;1765535193217452;0
1410;1765535193217459;268,710000;1765535193217453;-971,490000;1765535193217459;0
1411;1765535193217460;1439,685000;1765535193217460;-971,490000;1765535193217459;0
1412;1765535193217461;1439,685000;1765535193217460;-171,405000;1765535193217461;0
1413;1765535193217462;1972,815000;1765535193217462;-171,405000;1765535193217461;0
1414;1765535193217463;1972,815000;1765535193217462;308,295000;1765535193217463;0
1415;1765535193217464;1943,565000;1765535193217464;308,295000;1765535193217463;0
1416;1765535193217465;1810,575000;1765535193217465;403,455000;1765535193217465;0
1417;1765535193217467;1810,575000;1765535193217465;206,310000;1765535193217467;0
1418;1765535193217468;1934,985000;1765535193217468;298,935000;1765535193217468;0
1419;1765535193217469;1805,700000;1765535193217469;298,935000;1765535193217468;0
1420;1765535193217471;1605,825000;1765535193217471;249,795000;1765535193217471;0
1421;1765535193217472;1605,825000;1765535193217471;297,375000;1765535193217472;0
1422;1765535193217473;1555,905000;1765535193217473;297,375000;1765535193217472;0
1423;1765535193217475;1555,905000;1765535193217473;334,815000;1765535193217475;0
1424;1765535193217476;1568,190000;1765535193217476;334,815000;1765535193217475;0
1425;1765535193217477;1568,190000;1765535193217476;220,350000;1765535193217477;0
1426;1765535193217478;1452,360000;1765535193217478;220,350000;1765535193217477;0
1427;1765535193217479;1334,970000;1765535193217479;91,455000;1765535193217479;0
1428;1765535193217480;1334,970000;1765535193217479;108,225000;1765535193217480;0
1429;1765535193217481;1788,930000;1765535193217481;108,225000;1765535193217480;0
1430;1765535193217482;1788,930000;1765535193217481;357,630000;1765535193217482;0
1431;1765535193217483;1385,085000;1765535193217483;357,630000;1765535193217482;0
1432;1765535193217484;1385,085000;1765535193217483;148,980000;1765535193217484;0
1433;1765535193217485;1626,495000;1765535193217485;148,980000;1765535193217484;0
1434;1765535193217486;1626,495000;1765535193217485;222,105000;1765535193217486;0
1435;1765535193217487;1780,350000;1765535193217487;222,105000;1765535193217486;0
1436;1765535193217488;1780,350000;1765535193217487;358,410000;1765535193217488;0
1437;1765535193276210;-3912,285000;1765535193276210;358,410000;1765535193217488;0
1438;1765535193276215;-3912,285000;1765535193276210;-41,145000;1765535193276215;0
1439;1765535193276217;2005,185000;1765535193276217;-41,145000;1765535193276215;0
1440;1765535193276218;2005,185000;1765535193276217;241,020000;1765535193276218;0
1441;1765535193276219;1963,455000;1765535193276219;241,020000;1765535193276218;0
1442;1765535193276220;1963,455000;1765535193276219;178,815000;1765535193276220;0
1443;1765535193276221;1981,785000;1765535193276221;178,815000;1765535193276220;0
1444;1765535193276223;1981,785000;1765535193276221;242,190000;1765535193276223;0
1445;1765535193276224;2007,330000;1765535193276224;242,190000;1765535193276223;0
1446;1765535193276225;2007,330000;1765535193276224;288,990000;1765535193276225;0
1447;1765535193276226;1985,880000;1765535193276226;212,355000;1765535193276226;0
1448;1765535193276227;2076,165000;1765535193276227;212,355000;1765535193276226;0
1449;1765535193276228;2076,165000;1765535193276227;283,335000;1765535193276228;0
1450;1765535193276229;2000,700000;1765535193276229;283,335000;1765535193276228;0
1451;1765535193276230;2000,700000;1765535193276229;281,580000;1765535193276230;0
1452;1765535193276231;1932,060000;1765535193276231;281,580000;1765535193276230;0
1453;1765535193276232;1932,060000;1765535193276231;156,780000;1765535193276232;0
1454;1765535193276233;2083,185000;1765535193276233;156,780000;1765535193276232;0
1455;1765535193276234;2083,185000;1765535193276233;120,510000;1765535193276234;0
1456;1765535193276235;1918,215000;1765535193276235;120,510000;1765535193276234;0
1457;1765535193276236;1918,215000;1765535193276235;113,295000;1765535193276236;0
1458;1765535193276237;2267,070000;1765535193276237;113,295000;1765535193276236;0
1459;1765535193276238;2267,070000;1765535193276237;182,715000;1765535193276238;0
1460;1765535193276239;1973,205000;1765535193276239;182,715000;1765535193276238;0
1461;1765535193276240;2002,455000;1765535193276240;95,550000;1765535193276240;0
1462;1765535193276241;2002,455000;1765535193276240;164,385000;1765535193276241;0
1463;1765535193276242;2199,600000;1765535193276242;164,385000;1765535193276241;0
1464;1765535193276243;2199,600000;1765535193276242;295,425000;1765535193276243;0
1465;1765535193276244;2390,310000;1765535193276244;295,425000;1765535193276243;0
1466;1765535193276245;2390,310000;1765535193276244;307,710000;1765535193276245;0
1467;1765535193276246;2279,745000;1765535193276246;307,710000;1765535193276245;0
1468;1765535193276247;2279,745000;1765535193276246;216,450000;1765535193276247;0
1469;1765535193276248;2247,375000;1765535193276248;160,095000;1765535193276248;0
1470;1765535193276249;2195,310000;1765535193276249;160,095000;1765535193276248;0
1471;1765535193276250;2195,310000;1765535193276249;187,785000;1765535193276250;0
1472;1765535193276251;2161,770000;1765535193276251;187,785000;1765535193276250;0
1473;1765535193276252;2161,770000;1765535193276251;100,230000;1765535193276252;0
1474;1765535193276253;2206,425000;1765535193276253;100,230000;1765535193276252;0
1475;1765535193276254;2206,425000;1765535193276253;101,790000;1765535193276254;0
1476;1765535193276255;2091,960000;1765535193276255;101,790000;1765535193276254;0
1477;1765535193276256;2164,695000;1765535193276256;81,900000;1765535193276256;0
1478;1765535193276257;2164,695000;1765535193276256;122,850000;1765535193276257;0
1479;1765535193276258;2437,890000;1765535193276258;122,850000;1765535193276257;0
1480;1765535193276259;2437,890000;1765535193276258;242,190000;1765535193276259;0
1481;1765535193276260;2442,375000;1765535193276260;242,190000;1765535193276259;0
1482;1765535193276261;2442,375000;1765535193276260;179,205000;1765535193276261;0
1483;1765535193276262;2359,500000;1765535193276262;179,205000;1765535193276261;0
1484;1765535193276263;2359,500000;1765535193276262;121,095000;1765535193276263;0
1485;1765535193276264;2289,495000;1765535193276264;121,095000;1765535193276263;0
1486;1765535193276265;2595,840000;1765535193276265;126,750000;1765535193276265;0
1487;1765535193276266;2595,840000;1765535193276265;168,285000;1765535193276266;0
