Index;Time_us;Ch1_val_uV;Ch1_ts_us;Ch2_val_uV;Ch2_ts_us;StimState
0;1765796155759052;26729,000000;1765796155759052;;;0
1;1765796155759053;26729,000000;1765796155759052;26729,000000;1765796155759053;0
2;1765796155759313;32383,000000;1765796155759313;26729,000000;1765796155759053;0
3;1765796155759314;32383,000000;1765796155759313;32383,000000;1765796155759314;0
4;1765796155759822;38551,000000;1765796155759822;32383,000000;1765796155759314;0
5;1765796155759823;38551,000000;1765796155759822;38551,000000;1765796155759823;0
6;1765796155760958;47289,000000;1765796155760958;38551,000000;1765796155759823;0
7;1765796155760960;47289,000000;1765796155760958;47289,000000;1765796155760960;0
8;1765796155761560;53457,000000;1765796155761560;47289,000000;1765796155760960;0
9;1765796155761561;53457,000000;1765796155761560;53457,000000;1765796155761561;0
10;1765796155762092;53457,000000;1765796155761560;59111,000000;1765796155762092;0
11;1765796155762722;62195,000000;1765796155762722;59111,000000;1765796155762092;0
12;1765796155762723;62195,000000;1765796155762722;62195,000000;1765796155762723;0
13;1765796155763431;2571,000000;1765796155763431;62195,000000;1765796155762723;0
14;1765796155763432;2571,000000;1765796155763431;2571,000000;1765796155763432;0
15;1765796155763709;2571,000000;1765796155763431;8225,000000;1765796155763709;0
16;1765796155764407;11309,000000;1765796155764407;8225,000000;1765796155763709;0
17;1765796155764408;11309,000000;1765796155764407;11309,000000;1765796155764408;0
18;1765796155765399;16963,000000;1765796155765399;11309,000000;1765796155764408;0
19;1765796155765400;16963,000000;1765796155765399;16963,000000;1765796155765400;0
20;1765796155766014;23131,000000;1765796155766014;16963,000000;1765796155765400;0
21;1765796155766015;23131,000000;1765796155766014;23131,000000;1765796155766015;0
22;1765796155818034;28785,000000;1765796155818034;23131,000000;1765796155766015;0
23;1765796155818037;28785,000000;1765796155818034;28785,000000;1765796155818037;0
24;1765796155818250;34953,000000;1765796155818250;28785,000000;1765796155818037;0
25;1765796155818251;34953,000000;1765796155818250;34953,000000;1765796155818251;0
26;1765796155818786;40607,000000;1765796155818786;34953,000000;1765796155818251;0
27;1765796155818787;40607,000000;1765796155818786;40607,000000;1765796155818787;0
28;1765796155819288;31355,000000;1765796155819288;40607,000000;1765796155818787;0
29;1765796155819289;31355,000000;1765796155819288;31355,000000;1765796155819289;0
30;1765796155820623;38551,000000;1765796155820623;31355,000000;1765796155819289;0
31;1765796155820625;38551,000000;1765796155820623;38551,000000;1765796155820625;0
32;1765796155820870;44205,000000;1765796155820870;38551,000000;1765796155820625;0
33;1765796155820872;44205,000000;1765796155820870;44205,000000;1765796155820872;0
34;1765796155820968;50373,000000;1765796155820968;44205,000000;1765796155820872;0
35;1765796155820969;50373,000000;1765796155820968;50373,000000;1765796155820969;0
36;1765796155821623;56027,000000;1765796155821623;50373,000000;1765796155820969;0
37;1765796155821628;56027,000000;1765796155821623;56027,000000;1765796155821628;0
38;1765796155823042;61681,000000;1765796155823042;56027,000000;1765796155821628;0
39;1765796155823047;61681,000000;1765796155823042;61681,000000;1765796155823047;0
40;1765796155826107;2057,000000;1765796155826107;61681,000000;1765796155823047;0
41;1765796155826110;2057,000000;1765796155826107;2057,000000;1765796155826110;0
42;1765796155826259;7711,000000;1765796155826259;2057,000000;1765796155826110;0
43;1765796155826260;7711,000000;1765796155826259;7711,000000;1765796155826260;0
44;1765796155827230;13879,000000;1765796155827230;7711,000000;1765796155826260;0
45;1765796155827231;13879,000000;1765796155827230;13879,000000;1765796155827231;0
46;1765796155827458;20047,000000;1765796155827458;13879,000000;1765796155827231;0
47;1765796155827459;20047,000000;1765796155827458;20047,000000;1765796155827459;0
48;1765796155827600;25701,000000;1765796155827600;20047,000000;1765796155827459;0
49;1765796155827601;25701,000000;1765796155827600;25701,000000;1765796155827601;0
50;1765796155827789;31355,000000;1765796155827789;25701,000000;1765796155827601;0
51;1765796155827790;31355,000000;1765796155827789;31355,000000;1765796155827790;0
52;1765796155827880;37523,000000;1765796155827880;31355,000000;1765796155827790;0
53;1765796155827881;37523,000000;1765796155827880;37523,000000;1765796155827881;0
54;1765796155827986;43177,000000;1765796155827986;43177,000000;1765796155827986;0
55;1765796155828041;49345,000000;1765796155828041;43177,000000;1765796155827986;0
56;1765796155828042;49345,000000;1765796155828041;49345,000000;1765796155828042;0
57;1765796155828299;11823,000000;1765796155828299;49345,000000;1765796155828042;0
58;1765796155828301;11823,000000;1765796155828299;11823,000000;1765796155828301;0
59;1765796155828454;15935,000000;1765796155828454;11823,000000;1765796155828301;0
60;1765796155828455;15935,000000;1765796155828454;15935,000000;1765796155828455;0
61;1765796155828868;15935,000000;1765796155828454;23131,000000;1765796155828868;0
62;1765796155829447;27243,000000;1765796155829447;23131,000000;1765796155828868;0
63;1765796155829448;27243,000000;1765796155829447;27243,000000;1765796155829448;0
64;1765796155830131;34439,000000;1765796155830131;27243,000000;1765796155829448;0
65;1765796155830132;34439,000000;1765796155830131;34439,000000;1765796155830132;0
66;1765796155831003;40607,000000;1765796155831003;34439,000000;1765796155830132;0
67;1765796155831004;40607,000000;1765796155831003;40607,000000;1765796155831004;0
68;1765796155878317;46775,000000;1765796155878317;40607,000000;1765796155831004;0
69;1765796155878321;46775,000000;1765796155878317;46775,000000;1765796155878321;0
70;1765796155879555;52429,000000;1765796155879555;46775,000000;1765796155878321;0
71;1765796155879561;52429,000000;1765796155879555;52429,000000;1765796155879561;0
72;1765796155879829;58083,000000;1765796155879829;52429,000000;1765796155879561;0
73;1765796155879833;58083,000000;1765796155879829;58083,000000;1765796155879833;0
74;1765796155880132;64251,000000;1765796155880132;58083,000000;1765796155879833;0
75;1765796155880138;64251,000000;1765796155880132;64251,000000;1765796155880138;0
76;1765796155880382;4113,000000;1765796155880382;64251,000000;1765796155880138;0
77;1765796155880384;4113,000000;1765796155880382;4113,000000;1765796155880384;0
78;1765796155880590;10281,000000;1765796155880590;4113,000000;1765796155880384;0
79;1765796155880592;10281,000000;1765796155880590;10281,000000;1765796155880592;0
80;1765796155881669;15935,000000;1765796155881669;10281,000000;1765796155880592;0
81;1765796155881671;15935,000000;1765796155881669;15935,000000;1765796155881671;0
82;1765796155881950;22103,000000;1765796155881950;15935,000000;1765796155881671;0
83;1765796155881952;22103,000000;1765796155881950;22103,000000;1765796155881952;0
84;1765796155882697;28271,000000;1765796155882697;22103,000000;1765796155881952;0
85;1765796155882700;28271,000000;1765796155882697;28271,000000;1765796155882700;0
86;1765796155882836;33925,000000;1765796155882836;28271,000000;1765796155882700;0
87;1765796155882838;33925,000000;1765796155882836;33925,000000;1765796155882838;0
88;1765796155883685;40093,000000;1765796155883685;33925,000000;1765796155882838;0
89;1765796155883688;40093,000000;1765796155883685;40093,000000;1765796155883688;0
90;1765796155883973;45747,000000;1765796155883973;40093,000000;1765796155883688;0
91;1765796155883975;45747,000000;1765796155883973;45747,000000;1765796155883975;0
92;1765796155884504;51915,000000;1765796155884504;45747,000000;1765796155883975;0
93;1765796155884506;51915,000000;1765796155884504;51915,000000;1765796155884506;0
94;1765796155885384;57569,000000;1765796155885384;51915,000000;1765796155884506;0
95;1765796155885386;57569,000000;1765796155885384;57569,000000;1765796155885386;0
96;1765796155886640;63223,000000;1765796155886640;57569,000000;1765796155885386;0
97;1765796155886644;63223,000000;1765796155886640;63223,000000;1765796155886644;0
98;1765796155886852;3599,000000;1765796155886852;63223,000000;1765796155886644;0
99;1765796155886853;3599,000000;1765796155886852;3599,000000;1765796155886853;0
100;1765796155888964;9253,000000;1765796155888964;3599,000000;1765796155886853;0
101;1765796155888970;9253,000000;1765796155888964;9253,000000;1765796155888970;0
102;1765796155889347;15421,000000;1765796155889347;9253,000000;1765796155888970;0
103;1765796155889349;15421,000000;1765796155889347;15421,000000;1765796155889349;0
104;1765796155889599;60139,000000;1765796155889599;15421,000000;1765796155889349;0
105;1765796155889601;60139,000000;1765796155889599;60139,000000;1765796155889601;0
106;1765796155890113;7711,000000;1765796155890113;60139,000000;1765796155889601;0
107;1765796155890116;7711,000000;1765796155890113;7711,000000;1765796155890116;0
108;1765796155890341;12851,000000;1765796155890341;7711,000000;1765796155890116;0
109;1765796155890343;12851,000000;1765796155890341;12851,000000;1765796155890343;0
110;1765796155890832;19019,000000;1765796155890832;12851,000000;1765796155890343;0
111;1765796155890834;19019,000000;1765796155890832;19019,000000;1765796155890834;0
112;1765796155891574;24673,000000;1765796155891574;19019,000000;1765796155890834;0
113;1765796155891576;24673,000000;1765796155891574;24673,000000;1765796155891576;0
114;1765796155938730;30841,000000;1765796155938730;24673,000000;1765796155891576;0
115;1765796155938736;30841,000000;1765796155938730;30841,000000;1765796155938736;0
116;1765796155939368;36495,000000;1765796155939368;30841,000000;1765796155938736;0
117;1765796155939372;36495,000000;1765796155939368;36495,000000;1765796155939372;0
118;1765796155939806;42663,000000;1765796155939806;36495,000000;1765796155939372;0
119;1765796155939812;42663,000000;1765796155939806;42663,000000;1765796155939812;0
120;1765796155940140;48317,000000;1765796155940140;42663,000000;1765796155939812;0
121;1765796155940144;48317,000000;1765796155940140;48317,000000;1765796155940144;0
122;1765796155940674;54485,000000;1765796155940674;48317,000000;1765796155940144;0
123;1765796155940679;54485,000000;1765796155940674;54485,000000;1765796155940679;0
124;1765796155941250;54485,000000;1765796155940674;60139,000000;1765796155941250;0
125;1765796155941720;63223,000000;1765796155941720;60139,000000;1765796155941250;0
126;1765796155941725;63223,000000;1765796155941720;63223,000000;1765796155941725;0
127;1765796155942706;3599,000000;1765796155942706;63223,000000;1765796155941725;0
128;1765796155942710;3599,000000;1765796155942706;3599,000000;1765796155942710;0
129;1765796155943129;9253,000000;1765796155943129;3599,000000;1765796155942710;0
130;1765796155943134;9253,000000;1765796155943129;9253,000000;1765796155943134;0
131;1765796155943645;15421,000000;1765796155943645;9253,000000;1765796155943134;0
132;1765796155943657;15421,000000;1765796155943645;15421,000000;1765796155943657;0
133;1765796155944348;15421,000000;1765796155943645;21075,000000;1765796155944348;0
134;1765796155944714;24159,000000;1765796155944714;21075,000000;1765796155944348;0
135;1765796155944719;24159,000000;1765796155944714;24159,000000;1765796155944719;0
136;1765796155945547;30327,000000;1765796155945547;24159,000000;1765796155944719;0
137;1765796155945551;30327,000000;1765796155945547;30327,000000;1765796155945551;0
138;1765796155945887;35981,000000;1765796155945887;30327,000000;1765796155945551;0
139;1765796155945891;35981,000000;1765796155945887;35981,000000;1765796155945891;0
140;1765796155946155;41635,000000;1765796155946155;35981,000000;1765796155945891;0
141;1765796155946159;41635,000000;1765796155946155;41635,000000;1765796155946159;0
142;1765796155946740;47803,000000;1765796155946740;41635,000000;1765796155946159;0
143;1765796155946744;47803,000000;1765796155946740;47803,000000;1765796155946744;0
144;1765796155947619;53457,000000;1765796155947619;47803,000000;1765796155946744;0
145;1765796155947623;53457,000000;1765796155947619;53457,000000;1765796155947623;0
146;1765796155948050;59625,000000;1765796155948050;53457,000000;1765796155947623;0
147;1765796155948054;59625,000000;1765796155948050;59625,000000;1765796155948054;0
148;1765796155948564;38037,000000;1765796155948564;59625,000000;1765796155948054;0
149;1765796155948568;38037,000000;1765796155948564;38037,000000;1765796155948568;0
150;1765796155949030;44719,000000;1765796155949030;38037,000000;1765796155948568;0
151;1765796155949033;44719,000000;1765796155949030;44719,000000;1765796155949033;0
152;1765796155949517;50887,000000;1765796155949517;44719,000000;1765796155949033;0
153;1765796155949520;50887,000000;1765796155949517;50887,000000;1765796155949520;0
154;1765796155950206;57055,000000;1765796155950206;50887,000000;1765796155949520;0
155;1765796155950209;57055,000000;1765796155950206;57055,000000;1765796155950209;0
156;1765796155950685;63223,000000;1765796155950685;57055,000000;1765796155950209;0
157;1765796155950692;63223,000000;1765796155950685;63223,000000;1765796155950692;0
158;1765796155951234;3085,000000;1765796155951234;63223,000000;1765796155950692;0
159;1765796155951237;3085,000000;1765796155951234;3085,000000;1765796155951237;0
160;1765796155998535;9253,000000;1765796155998535;3085,000000;1765796155951237;0
161;1765796155998536;9253,000000;1765796155998535;9253,000000;1765796155998536;0
162;1765796156058131;14907,000000;1765796156058131;9253,000000;1765796155998536;0
163;1765796156058133;14907,000000;1765796156058131;14907,000000;1765796156058133;0
164;1765796156058331;21075,000000;1765796156058331;14907,000000;1765796156058133;0
165;1765796156058333;21075,000000;1765796156058331;21075,000000;1765796156058333;0
166;1765796156058794;26729,000000;1765796156058794;21075,000000;1765796156058333;0
167;1765796156058795;26729,000000;1765796156058794;26729,000000;1765796156058795;0
168;1765796156059483;32897,000000;1765796156059483;26729,000000;1765796156058795;0
169;1765796156059484;32897,000000;1765796156059483;32897,000000;1765796156059484;0
170;1765796156059947;38551,000000;1765796156059947;32897,000000;1765796156059484;0
171;1765796156059948;38551,000000;1765796156059947;38551,000000;1765796156059948;0
172;1765796156060482;44719,000000;1765796156060482;38551,000000;1765796156059948;0
173;1765796156060483;44719,000000;1765796156060482;44719,000000;1765796156060483;0
174;1765796156061123;44719,000000;1765796156060482;50373,000000;1765796156061123;0
175;1765796156061626;53457,000000;1765796156061626;50373,000000;1765796156061123;0
176;1765796156061628;53457,000000;1765796156061626;53457,000000;1765796156061628;0
177;1765796156062147;59625,000000;1765796156062147;53457,000000;1765796156061628;0
178;1765796156062148;59625,000000;1765796156062147;59625,000000;1765796156062148;0
179;1765796156062638;1,000000;1765796156062638;1,000000;1765796156062638;0
180;1765796156063337;5655,000000;1765796156063337;5655,000000;1765796156063337;0
181;1765796156063798;11823,000000;1765796156063798;5655,000000;1765796156063337;0
182;1765796156063799;11823,000000;1765796156063798;11823,000000;1765796156063799;0
183;1765796156065199;19533,000000;1765796156065199;11823,000000;1765796156063799;0
184;1765796156065200;19533,000000;1765796156065199;19533,000000;1765796156065200;0
185;1765796156065588;25701,000000;1765796156065588;19533,000000;1765796156065200;0
186;1765796156065589;25701,000000;1765796156065588;25701,000000;1765796156065589;0
187;1765796156066306;31869,000000;1765796156066306;25701,000000;1765796156065589;0
188;1765796156066308;31869,000000;1765796156066306;31869,000000;1765796156066308;0
189;1765796156066717;38037,000000;1765796156066717;31869,000000;1765796156066308;0
190;1765796156066718;38037,000000;1765796156066717;38037,000000;1765796156066718;0
191;1765796156067214;63737,000000;1765796156067214;38037,000000;1765796156066718;0
192;1765796156067215;63737,000000;1765796156067214;63737,000000;1765796156067215;0
193;1765796156067768;5141,000000;1765796156067768;63737,000000;1765796156067215;0
194;1765796156067769;5141,000000;1765796156067768;5141,000000;1765796156067769;0
195;1765796156068326;10795,000000;1765796156068326;5141,000000;1765796156067769;0
196;1765796156068328;10795,000000;1765796156068326;10795,000000;1765796156068328;0
197;1765796156068909;16963,000000;1765796156068909;10795,000000;1765796156068328;0
198;1765796156068910;16963,000000;1765796156068909;16963,000000;1765796156068910;0
199;1765796156069594;22617,000000;1765796156069594;16963,000000;1765796156068910;0
200;1765796156069595;22617,000000;1765796156069594;22617,000000;1765796156069595;0
201;1765796156070101;28785,000000;1765796156070101;22617,000000;1765796156069595;0
202;1765796156070102;28785,000000;1765796156070101;28785,000000;1765796156070102;0
203;1765796156118868;34439,000000;1765796156118868;28785,000000;1765796156070102;0
204;1765796156118871;34439,000000;1765796156118868;34439,000000;1765796156118871;0
205;1765796156121359;40607,000000;1765796156121359;34439,000000;1765796156118871;0
206;1765796156121364;40607,000000;1765796156121359;40607,000000;1765796156121364;0
207;1765796156122403;46261,000000;1765796156122403;40607,000000;1765796156121364;0
208;1765796156122405;46261,000000;1765796156122403;46261,000000;1765796156122405;0
209;1765796156122590;52429,000000;1765796156122590;52429,000000;1765796156122590;0
210;1765796156122689;58083,000000;1765796156122689;58083,000000;1765796156122689;0
211;1765796156122742;64251,000000;1765796156122742;58083,000000;1765796156122689;0
212;1765796156122743;64251,000000;1765796156122742;64251,000000;1765796156122743;0
213;1765796156122782;4113,000000;1765796156122782;4113,000000;1765796156122782;0
214;1765796156122874;10281,000000;1765796156122874;10281,000000;1765796156122874;0
215;1765796156123717;19019,000000;1765796156123717;10281,000000;1765796156122874;0
216;1765796156123719;19019,000000;1765796156123717;19019,000000;1765796156123719;0
217;1765796156123927;25187,000000;1765796156123927;19019,000000;1765796156123719;0
218;1765796156123928;25187,000000;1765796156123927;25187,000000;1765796156123928;0
219;1765796156124401;31355,000000;1765796156124401;25187,000000;1765796156123928;0
220;1765796156124402;31355,000000;1765796156124401;31355,000000;1765796156124402;0
221;1765796156125004;37009,000000;1765796156125004;31355,000000;1765796156124402;0
222;1765796156125006;37009,000000;1765796156125004;37009,000000;1765796156125006;0
223;1765796156125574;42663,000000;1765796156125574;37009,000000;1765796156125006;0
224;1765796156125575;42663,000000;1765796156125574;42663,000000;1765796156125575;0
225;1765796156126051;48831,000000;1765796156126051;42663,000000;1765796156125575;0
226;1765796156126052;48831,000000;1765796156126051;48831,000000;1765796156126052;0
227;1765796156126591;54485,000000;1765796156126591;48831,000000;1765796156126052;0
228;1765796156126592;54485,000000;1765796156126591;54485,000000;1765796156126592;0
229;1765796156126872;54485,000000;1765796156126591;60139,000000;1765796156126872;0
230;1765796156127703;54485,000000;1765796156126591;62709,000000;1765796156127703;0
231;1765796156130015;55513,000000;1765796156130015;62709,000000;1765796156127703;0
232;1765796156130016;55513,000000;1765796156130015;55513,000000;1765796156130016;0
233;1765796156130238;55513,000000;1765796156130015;61167,000000;1765796156130238;0
234;1765796156130727;65279,000000;1765796156130727;61167,000000;1765796156130238;0
235;1765796156130729;65279,000000;1765796156130727;65279,000000;1765796156130729;0
236;1765796156130968;7197,000000;1765796156130968;65279,000000;1765796156130729;0
237;1765796156130969;7197,000000;1765796156130968;7197,000000;1765796156130969;0
238;1765796156131193;12851,000000;1765796156131193;12851,000000;1765796156131193;0
239;1765796156177949;19019,000000;1765796156177949;12851,000000;1765796156131193;0
240;1765796156177951;19019,000000;1765796156177949;19019,000000;1765796156177951;0
241;1765796156178234;25187,000000;1765796156178234;19019,000000;1765796156177951;0
242;1765796156178236;25187,000000;1765796156178234;25187,000000;1765796156178236;0
243;1765796156179291;33411,000000;1765796156179291;25187,000000;1765796156178236;0
244;1765796156179293;33411,000000;1765796156179291;33411,000000;1765796156179293;0
245;1765796156179737;39579,000000;1765796156179737;33411,000000;1765796156179293;0
246;1765796156179738;39579,000000;1765796156179737;39579,000000;1765796156179738;0
247;1765796156180365;39579,000000;1765796156179737;45233,000000;1765796156180365;0
248;1765796156180931;48317,000000;1765796156180931;45233,000000;1765796156180365;0
249;1765796156180932;48317,000000;1765796156180931;48317,000000;1765796156180932;0
250;1765796156181495;54485,000000;1765796156181495;48317,000000;1765796156180932;0
251;1765796156181497;54485,000000;1765796156181495;54485,000000;1765796156181497;0
252;1765796156182089;60653,000000;1765796156182089;54485,000000;1765796156181497;0
253;1765796156182090;60653,000000;1765796156182089;60653,000000;1765796156182090;0
254;1765796156182613;515,000000;1765796156182613;60653,000000;1765796156182090;0
255;1765796156182614;515,000000;1765796156182613;515,000000;1765796156182614;0
256;1765796156183058;6683,000000;1765796156183058;515,000000;1765796156182614;0
257;1765796156183059;6683,000000;1765796156183058;6683,000000;1765796156183059;0
258;1765796156183695;12337,000000;1765796156183695;6683,000000;1765796156183059;0
259;1765796156183698;12337,000000;1765796156183695;12337,000000;1765796156183698;0
260;1765796156184252;18505,000000;1765796156184252;12337,000000;1765796156183698;0
261;1765796156184253;18505,000000;1765796156184252;18505,000000;1765796156184253;0
262;1765796156185610;24159,000000;1765796156185610;18505,000000;1765796156184253;0
263;1765796156185611;24159,000000;1765796156185610;24159,000000;1765796156185611;0
264;1765796156242219;29813,000000;1765796156242219;24159,000000;1765796156185611;0
265;1765796156242225;29813,000000;1765796156242219;29813,000000;1765796156242225;0
266;1765796156242937;35981,000000;1765796156242937;29813,000000;1765796156242225;0
267;1765796156242944;35981,000000;1765796156242937;35981,000000;1765796156242944;0
268;1765796156243366;41635,000000;1765796156243366;35981,000000;1765796156242944;0
269;1765796156243372;41635,000000;1765796156243366;41635,000000;1765796156243372;0
270;1765796156243972;47803,000000;1765796156243972;41635,000000;1765796156243372;0
271;1765796156243978;47803,000000;1765796156243972;47803,000000;1765796156243978;0
272;1765796156244131;32383,000000;1765796156244131;47803,000000;1765796156243978;0
273;1765796156244134;32383,000000;1765796156244131;32383,000000;1765796156244134;0
274;1765796156244271;39065,000000;1765796156244271;32383,000000;1765796156244134;0
275;1765796156244273;39065,000000;1765796156244271;39065,000000;1765796156244273;0
276;1765796156244499;45233,000000;1765796156244499;39065,000000;1765796156244273;0
277;1765796156244502;45233,000000;1765796156244499;45233,000000;1765796156244502;0
278;1765796156244631;50887,000000;1765796156244631;45233,000000;1765796156244502;0
279;1765796156244633;50887,000000;1765796156244631;50887,000000;1765796156244633;0
280;1765796156244869;57055,000000;1765796156244869;50887,000000;1765796156244633;0
281;1765796156244871;57055,000000;1765796156244869;57055,000000;1765796156244871;0
282;1765796156245036;57055,000000;1765796156244869;62709,000000;1765796156245036;0
283;1765796156245245;1,000000;1765796156245245;62709,000000;1765796156245036;0
284;1765796156245248;1,000000;1765796156245245;1,000000;1765796156245248;0
285;1765796156245392;6169,000000;1765796156245392;1,000000;1765796156245248;0
286;1765796156245394;6169,000000;1765796156245392;6169,000000;1765796156245394;0
287;1765796156245529;11823,000000;1765796156245529;6169,000000;1765796156245394;0
288;1765796156245531;11823,000000;1765796156245529;11823,000000;1765796156245531;0
289;1765796156245670;17477,000000;1765796156245670;11823,000000;1765796156245531;0
290;1765796156245671;17477,000000;1765796156245670;17477,000000;1765796156245671;0
291;1765796156245815;23645,000000;1765796156245815;17477,000000;1765796156245671;0
292;1765796156245817;23645,000000;1765796156245815;23645,000000;1765796156245817;0
293;1765796156246116;29299,000000;1765796156246116;23645,000000;1765796156245817;0
294;1765796156246118;29299,000000;1765796156246116;29299,000000;1765796156246118;0
295;1765796156246679;35467,000000;1765796156246679;29299,000000;1765796156246118;0
296;1765796156246681;35467,000000;1765796156246679;35467,000000;1765796156246681;0
297;1765796156247138;41121,000000;1765796156247138;35467,000000;1765796156246681;0
298;1765796156247139;41121,000000;1765796156247138;41121,000000;1765796156247139;0
299;1765796156247677;10795,000000;1765796156247677;41121,000000;1765796156247139;0
300;1765796156247679;10795,000000;1765796156247677;10795,000000;1765796156247679;0
301;1765796156248221;17991,000000;1765796156248221;10795,000000;1765796156247679;0
302;1765796156248222;17991,000000;1765796156248221;17991,000000;1765796156248222;0
303;1765796156248750;24159,000000;1765796156248750;17991,000000;1765796156248222;0
304;1765796156248751;24159,000000;1765796156248750;24159,000000;1765796156248751;0
305;1765796156249370;28271,000000;1765796156249370;24159,000000;1765796156248751;0
306;1765796156249372;28271,000000;1765796156249370;28271,000000;1765796156249372;0
307;1765796156249874;35467,000000;1765796156249874;28271,000000;1765796156249372;0
308;1765796156249875;35467,000000;1765796156249874;35467,000000;1765796156249875;0
309;1765796156250998;44719,000000;1765796156250998;35467,000000;1765796156249875;0
310;1765796156250999;44719,000000;1765796156250998;44719,000000;1765796156250999;0
311;1765796156298291;50373,000000;1765796156298291;44719,000000;1765796156250999;0
312;1765796156298294;50373,000000;1765796156298291;50373,000000;1765796156298294;0
313;1765796156358166;59111,000000;1765796156358166;50373,000000;1765796156298294;0
314;1765796156358169;59111,000000;1765796156358166;59111,000000;1765796156358169;0
315;1765796156358452;65279,000000;1765796156358452;59111,000000;1765796156358169;0
316;1765796156358454;65279,000000;1765796156358452;65279,000000;1765796156358454;0
317;1765796156359048;5141,000000;1765796156359048;65279,000000;1765796156358454;0
318;1765796156359049;5141,000000;1765796156359048;5141,000000;1765796156359049;0
319;1765796156359461;11309,000000;1765796156359461;5141,000000;1765796156359049;0
320;1765796156359462;11309,000000;1765796156359461;11309,000000;1765796156359462;0
321;1765796156359993;11309,000000;1765796156359461;16963,000000;1765796156359993;0
322;1765796156360519;20047,000000;1765796156360519;16963,000000;1765796156359993;0
323;1765796156360520;20047,000000;1765796156360519;20047,000000;1765796156360520;0
324;1765796156361066;26215,000000;1765796156361066;20047,000000;1765796156360520;0
325;1765796156361067;26215,000000;1765796156361066;26215,000000;1765796156361067;0
326;1765796156361523;31869,000000;1765796156361523;26215,000000;1765796156361067;0
327;1765796156361524;31869,000000;1765796156361523;31869,000000;1765796156361524;0
328;1765796156362136;38037,000000;1765796156362136;31869,000000;1765796156361524;0
329;1765796156362137;38037,000000;1765796156362136;38037,000000;1765796156362137;0
330;1765796156362839;44205,000000;1765796156362839;38037,000000;1765796156362137;0
331;1765796156362841;44205,000000;1765796156362839;44205,000000;1765796156362841;0
332;1765796156363282;49859,000000;1765796156363282;44205,000000;1765796156362841;0
333;1765796156363283;49859,000000;1765796156363282;49859,000000;1765796156363283;0
334;1765796156363823;55513,000000;1765796156363823;49859,000000;1765796156363283;0
335;1765796156363825;55513,000000;1765796156363823;55513,000000;1765796156363825;0
336;1765796156364302;61167,000000;1765796156364302;55513,000000;1765796156363825;0
337;1765796156364303;61167,000000;1765796156364302;61167,000000;1765796156364303;0
338;1765796156365717;1543,000000;1765796156365717;61167,000000;1765796156364303;0
339;1765796156365718;1543,000000;1765796156365717;1543,000000;1765796156365718;0
340;1765796156366073;10281,000000;1765796156366073;1543,000000;1765796156365718;0
341;1765796156366074;10281,000000;1765796156366073;10281,000000;1765796156366074;0
342;1765796156366642;57569,000000;1765796156366642;10281,000000;1765796156366074;0
343;1765796156366643;57569,000000;1765796156366642;57569,000000;1765796156366643;0
344;1765796156367842;64251,000000;1765796156367842;57569,000000;1765796156366643;0
345;1765796156367843;64251,000000;1765796156367842;64251,000000;1765796156367843;0
346;1765796156367998;42149,000000;1765796156367998;64251,000000;1765796156367843;0
347;1765796156367999;42149,000000;1765796156367998;42149,000000;1765796156367999;0
348;1765796156368475;49345,000000;1765796156368475;42149,000000;1765796156367999;0
349;1765796156368478;49345,000000;1765796156368475;49345,000000;1765796156368478;0
350;1765796156368985;54999,000000;1765796156368985;54999,000000;1765796156368985;0
351;1765796156369579;54999,000000;1765796156368985;60653,000000;1765796156369579;0
352;1765796156370074;64251,000000;1765796156370074;60653,000000;1765796156369579;0
353;1765796156370075;64251,000000;1765796156370074;64251,000000;1765796156370075;0
354;1765796156370897;4113,000000;1765796156370897;64251,000000;1765796156370075;0
355;1765796156370899;4113,000000;1765796156370897;4113,000000;1765796156370899;0
356;1765796156421895;10281,000000;1765796156421895;4113,000000;1765796156370899;0
357;1765796156421899;10281,000000;1765796156421895;10281,000000;1765796156421899;0
358;1765796156422386;15935,000000;1765796156422386;10281,000000;1765796156421899;0
359;1765796156422389;15935,000000;1765796156422386;15935,000000;1765796156422389;0
360;1765796156422560;22103,000000;1765796156422560;15935,000000;1765796156422389;0
361;1765796156422561;22103,000000;1765796156422560;22103,000000;1765796156422561;0
362;1765796156422751;27757,000000;1765796156422751;22103,000000;1765796156422561;0
363;1765796156422752;27757,000000;1765796156422751;27757,000000;1765796156422752;0
364;1765796156423105;36495,000000;1765796156423105;27757,000000;1765796156422752;0
365;1765796156423107;36495,000000;1765796156423105;36495,000000;1765796156423107;0
366;1765796156423219;42663,000000;1765796156423219;42663,000000;1765796156423219;0
367;1765796156423378;48831,000000;1765796156423378;42663,000000;1765796156423219;0
368;1765796156423379;48831,000000;1765796156423378;48831,000000;1765796156423379;0
369;1765796156425641;54485,000000;1765796156425641;48831,000000;1765796156423379;0
370;1765796156425642;54485,000000;1765796156425641;54485,000000;1765796156425642;0
371;1765796156426033;60653,000000;1765796156426033;54485,000000;1765796156425642;0
372;1765796156426034;60653,000000;1765796156426033;60653,000000;1765796156426034;0
373;1765796156426266;515,000000;1765796156426266;60653,000000;1765796156426034;0
374;1765796156426267;515,000000;1765796156426266;515,000000;1765796156426267;0
375;1765796156426812;3599,000000;1765796156426812;515,000000;1765796156426267;0
376;1765796156426813;3599,000000;1765796156426812;3599,000000;1765796156426813;0
377;1765796156427311;9767,000000;1765796156427311;3599,000000;1765796156426813;0
378;1765796156427312;9767,000000;1765796156427311;9767,000000;1765796156427312;0
379;1765796156427815;15421,000000;1765796156427815;9767,000000;1765796156427312;0
380;1765796156427816;15421,000000;1765796156427815;15421,000000;1765796156427816;0
381;1765796156428284;21075,000000;1765796156428284;15421,000000;1765796156427816;0
382;1765796156428285;21075,000000;1765796156428284;21075,000000;1765796156428285;0
383;1765796156428796;27243,000000;1765796156428796;21075,000000;1765796156428285;0
384;1765796156428797;27243,000000;1765796156428796;27243,000000;1765796156428797;0
385;1765796156428998;32897,000000;1765796156428998;32897,000000;1765796156428998;0
386;1765796156429417;39065,000000;1765796156429417;32897,000000;1765796156428998;0
387;1765796156429418;39065,000000;1765796156429417;39065,000000;1765796156429418;0
388;1765796156429661;20561,000000;1765796156429661;39065,000000;1765796156429418;0
389;1765796156429662;20561,000000;1765796156429661;20561,000000;1765796156429662;0
390;1765796156433163;41121,000000;1765796156433163;20561,000000;1765796156429662;0
391;1765796156433165;41121,000000;1765796156433163;41121,000000;1765796156433165;0
392;1765796156433380;48317,000000;1765796156433380;41121,000000;1765796156433165;0
393;1765796156433381;48317,000000;1765796156433380;48317,000000;1765796156433381;0
394;1765796156433592;54485,000000;1765796156433592;48317,000000;1765796156433381;0
395;1765796156433593;54485,000000;1765796156433592;54485,000000;1765796156433593;0
396;1765796156479338;60139,000000;1765796156479338;54485,000000;1765796156433593;0
397;1765796156479341;60139,000000;1765796156479338;60139,000000;1765796156479341;0
398;1765796156479891;515,000000;1765796156479891;60139,000000;1765796156479341;0
399;1765796156479892;515,000000;1765796156479891;515,000000;1765796156479892;0
400;1765796156480325;6169,000000;1765796156480325;515,000000;1765796156479892;0
401;1765796156480326;6169,000000;1765796156480325;6169,000000;1765796156480326;0
402;1765796156480546;12337,000000;1765796156480546;6169,000000;1765796156480326;0
403;1765796156480549;12337,000000;1765796156480546;12337,000000;1765796156480549;0
404;1765796156481137;17991,000000;1765796156481137;12337,000000;1765796156480549;0
405;1765796156481138;17991,000000;1765796156481137;17991,000000;1765796156481138;0
406;1765796156481537;24159,000000;1765796156481537;17991,000000;1765796156481138;0
407;1765796156481538;24159,000000;1765796156481537;24159,000000;1765796156481538;0
408;1765796156481862;29813,000000;1765796156481862;24159,000000;1765796156481538;0
409;1765796156481864;29813,000000;1765796156481862;29813,000000;1765796156481864;0
410;1765796156482596;35981,000000;1765796156482596;29813,000000;1765796156481864;0
411;1765796156482597;35981,000000;1765796156482596;35981,000000;1765796156482597;0
412;1765796156482936;35981,000000;1765796156482596;41635,000000;1765796156482936;0
413;1765796156483324;44719,000000;1765796156483324;44719,000000;1765796156483324;0
414;1765796156484304;50887,000000;1765796156484304;44719,000000;1765796156483324;0
415;1765796156484305;50887,000000;1765796156484304;50887,000000;1765796156484305;0
416;1765796156484917;50887,000000;1765796156484304;56541,000000;1765796156484917;0
417;1765796156485366;59625,000000;1765796156485366;56541,000000;1765796156484917;0
418;1765796156485367;59625,000000;1765796156485366;59625,000000;1765796156485367;0
419;1765796156488889;65279,000000;1765796156488889;59625,000000;1765796156485367;0
420;1765796156488892;65279,000000;1765796156488889;65279,000000;1765796156488892;0
421;1765796156489330;65279,000000;1765796156488889;5141,000000;1765796156489330;0
422;1765796156491290;7711,000000;1765796156491290;5141,000000;1765796156489330;0
423;1765796156491292;7711,000000;1765796156491290;7711,000000;1765796156491292;0
424;1765796156491786;14393,000000;1765796156491786;7711,000000;1765796156491292;0
425;1765796156491788;14393,000000;1765796156491786;14393,000000;1765796156491788;0
426;1765796156492414;14393,000000;1765796156491786;20047,000000;1765796156492414;0
427;1765796156492658;2057,000000;1765796156492658;20047,000000;1765796156492414;0
428;1765796156492659;2057,000000;1765796156492658;2057,000000;1765796156492659;0
429;1765796156492771;8739,000000;1765796156492771;8739,000000;1765796156492771;0
430;1765796156493030;15421,000000;1765796156493030;15421,000000;1765796156493030;0
431;1765796156493207;20561,000000;1765796156493207;20561,000000;1765796156493207;0
432;1765796156493360;24159,000000;1765796156493360;24159,000000;1765796156493360;0
433;1765796156493512;29813,000000;1765796156493512;24159,000000;1765796156493360;0
434;1765796156493513;29813,000000;1765796156493512;29813,000000;1765796156493513;0
435;1765796156493760;35467,000000;1765796156493760;29813,000000;1765796156493513;0
436;1765796156493761;35467,000000;1765796156493760;35467,000000;1765796156493761;0
437;1765796156538287;41635,000000;1765796156538287;35467,000000;1765796156493761;0
438;1765796156538292;41635,000000;1765796156538287;41635,000000;1765796156538292;0
439;1765796156538692;45233,000000;1765796156538692;41635,000000;1765796156538292;0
440;1765796156538693;45233,000000;1765796156538692;45233,000000;1765796156538693;0
441;1765796156538783;50373,000000;1765796156538783;45233,000000;1765796156538693;0
442;1765796156538784;50373,000000;1765796156538783;50373,000000;1765796156538784;0
443;1765796156539405;50373,000000;1765796156538783;56027,000000;1765796156539405;0
444;1765796156539801;59111,000000;1765796156539801;56027,000000;1765796156539405;0
445;1765796156539802;59111,000000;1765796156539801;59111,000000;1765796156539802;0
446;1765796156540391;65279,000000;1765796156540391;59111,000000;1765796156539802;0
447;1765796156540392;65279,000000;1765796156540391;65279,000000;1765796156540392;0
448;1765796156541055;5141,000000;1765796156541055;65279,000000;1765796156540392;0
449;1765796156541056;5141,000000;1765796156541055;5141,000000;1765796156541056;0
450;1765796156541463;11309,000000;1765796156541463;5141,000000;1765796156541056;0
451;1765796156541464;11309,000000;1765796156541463;11309,000000;1765796156541464;0
452;1765796156542059;17477,000000;1765796156542059;11309,000000;1765796156541464;0
453;1765796156542060;17477,000000;1765796156542059;17477,000000;1765796156542060;0
454;1765796156542608;23131,000000;1765796156542608;17477,000000;1765796156542060;0
455;1765796156542609;23131,000000;1765796156542608;23131,000000;1765796156542609;0
456;1765796156543197;29299,000000;1765796156543197;23131,000000;1765796156542609;0
457;1765796156543198;29299,000000;1765796156543197;29299,000000;1765796156543198;0
458;1765796156543755;34953,000000;1765796156543755;29299,000000;1765796156543198;0
459;1765796156543756;34953,000000;1765796156543755;34953,000000;1765796156543756;0
460;1765796156544605;41121,000000;1765796156544605;34953,000000;1765796156543756;0
461;1765796156544606;41121,000000;1765796156544605;41121,000000;1765796156544606;0
462;1765796156545404;46775,000000;1765796156545404;41121,000000;1765796156544606;0
463;1765796156545406;46775,000000;1765796156545404;46775,000000;1765796156545406;0
464;1765796156546092;52429,000000;1765796156546092;46775,000000;1765796156545406;0
465;1765796156546093;52429,000000;1765796156546092;52429,000000;1765796156546093;0
466;1765796156546367;58597,000000;1765796156546367;52429,000000;1765796156546093;0
467;1765796156546372;58597,000000;1765796156546367;58597,000000;1765796156546372;0
468;1765796156546871;64251,000000;1765796156546871;58597,000000;1765796156546372;0
469;1765796156546872;64251,000000;1765796156546871;64251,000000;1765796156546872;0
470;1765796156547272;4627,000000;1765796156547272;64251,000000;1765796156546872;0
471;1765796156547273;4627,000000;1765796156547272;4627,000000;1765796156547273;0
472;1765796156547747;48831,000000;1765796156547747;4627,000000;1765796156547273;0
473;1765796156547748;48831,000000;1765796156547747;48831,000000;1765796156547748;0
474;1765796156548269;55513,000000;1765796156548269;48831,000000;1765796156547748;0
475;1765796156548270;55513,000000;1765796156548269;55513,000000;1765796156548270;0
476;1765796156548829;62195,000000;1765796156548829;55513,000000;1765796156548270;0
477;1765796156548830;62195,000000;1765796156548829;62195,000000;1765796156548830;0
478;1765796156549925;2057,000000;1765796156549925;62195,000000;1765796156548830;0
479;1765796156549926;2057,000000;1765796156549925;2057,000000;1765796156549926;0
480;1765796156550058;8225,000000;1765796156550058;8225,000000;1765796156550058;0
481;1765796156550500;13879,000000;1765796156550500;8225,000000;1765796156550058;0
482;1765796156550501;13879,000000;1765796156550500;13879,000000;1765796156550501;0
483;1765796156598037;20047,000000;1765796156598037;13879,000000;1765796156550501;0
484;1765796156598039;20047,000000;1765796156598037;20047,000000;1765796156598039;0
485;1765796156598339;26215,000000;1765796156598339;20047,000000;1765796156598039;0
486;1765796156598340;26215,000000;1765796156598339;26215,000000;1765796156598340;0
487;1765796156598670;31869,000000;1765796156598670;26215,000000;1765796156598340;0
488;1765796156598671;31869,000000;1765796156598670;31869,000000;1765796156598671;0
489;1765796156599292;37523,000000;1765796156599292;31869,000000;1765796156598671;0
490;1765796156599294;37523,000000;1765796156599292;37523,000000;1765796156599294;0
491;1765796156599912;43691,000000;1765796156599912;37523,000000;1765796156599294;0
492;1765796156599914;43691,000000;1765796156599912;43691,000000;1765796156599914;0
493;1765796156600479;49345,000000;1765796156600479;43691,000000;1765796156599914;0
494;1765796156600480;49345,000000;1765796156600479;49345,000000;1765796156600480;0
495;1765796156600926;55513,000000;1765796156600926;49345,000000;1765796156600480;0
496;1765796156600927;55513,000000;1765796156600926;55513,000000;1765796156600927;0
497;1765796156602078;64251,000000;1765796156602078;55513,000000;1765796156600927;0
498;1765796156602079;64251,000000;1765796156602078;64251,000000;1765796156602079;0
499;1765796156602556;4627,000000;1765796156602556;64251,000000;1765796156602079;0
500;1765796156602557;4627,000000;1765796156602556;4627,000000;1765796156602557;0
501;1765796156616781;10795,000000;1765796156616781;4627,000000;1765796156602557;0
502;1765796156616783;10795,000000;1765796156616781;10795,000000;1765796156616783;0
503;1765796156617648;16449,000000;1765796156617648;10795,000000;1765796156616783;0
504;1765796156617649;16449,000000;1765796156617648;16449,000000;1765796156617649;0
505;1765796156617750;22617,000000;1765796156617750;16449,000000;1765796156617649;0
506;1765796156617752;22617,000000;1765796156617750;22617,000000;1765796156617752;0
507;1765796156617797;28271,000000;1765796156617797;28271,000000;1765796156617797;0
508;1765796156617846;33925,000000;1765796156617846;28271,000000;1765796156617797;0
509;1765796156617847;33925,000000;1765796156617846;33925,000000;1765796156617847;0
510;1765796156617879;39579,000000;1765796156617879;33925,000000;1765796156617847;0
511;1765796156617880;39579,000000;1765796156617879;39579,000000;1765796156617880;0
512;1765796156617912;45747,000000;1765796156617912;39579,000000;1765796156617880;0
513;1765796156617913;45747,000000;1765796156617912;45747,000000;1765796156617913;0
514;1765796156617944;51915,000000;1765796156617944;51915,000000;1765796156617944;0
515;1765796156617974;33411,000000;1765796156617974;51915,000000;1765796156617944;0
516;1765796156617975;33411,000000;1765796156617974;33411,000000;1765796156617975;0
517;1765796156618004;40093,000000;1765796156618004;33411,000000;1765796156617975;0
518;1765796156618005;40093,000000;1765796156618004;40093,000000;1765796156618005;0
519;1765796156618041;46261,000000;1765796156618041;40093,000000;1765796156618005;0
520;1765796156618043;46261,000000;1765796156618041;46261,000000;1765796156618043;0
521;1765796156618145;51915,000000;1765796156618145;46261,000000;1765796156618043;0
522;1765796156618147;51915,000000;1765796156618145;51915,000000;1765796156618147;0
523;1765796156618212;55513,000000;1765796156618212;51915,000000;1765796156618147;0
524;1765796156618214;55513,000000;1765796156618212;55513,000000;1765796156618214;0
525;1765796156618282;61167,000000;1765796156618282;55513,000000;1765796156618214;0
526;1765796156618284;61167,000000;1765796156618282;61167,000000;1765796156618284;0
527;1765796156657956;1543,000000;1765796156657956;61167,000000;1765796156618284;0
528;1765796156657958;1543,000000;1765796156657956;1543,000000;1765796156657958;0
529;1765796156658234;7197,000000;1765796156658234;1543,000000;1765796156657958;0
530;1765796156658236;7197,000000;1765796156658234;7197,000000;1765796156658236;0
531;1765796156658586;12851,000000;1765796156658586;7197,000000;1765796156658236;0
532;1765796156658587;12851,000000;1765796156658586;12851,000000;1765796156658587;0
533;1765796156659304;19019,000000;1765796156659304;12851,000000;1765796156658587;0
534;1765796156659305;19019,000000;1765796156659304;19019,000000;1765796156659305;0
535;1765796156659814;25187,000000;1765796156659814;19019,000000;1765796156659305;0
536;1765796156659818;25187,000000;1765796156659814;25187,000000;1765796156659818;0
537;1765796156660365;30841,000000;1765796156660365;25187,000000;1765796156659818;0
538;1765796156660367;30841,000000;1765796156660365;30841,000000;1765796156660367;0
539;1765796156660942;37009,000000;1765796156660942;30841,000000;1765796156660367;0
540;1765796156660944;37009,000000;1765796156660942;37009,000000;1765796156660944;0
541;1765796156661469;42663,000000;1765796156661469;37009,000000;1765796156660944;0
542;1765796156661471;42663,000000;1765796156661469;42663,000000;1765796156661471;0
543;1765796156662045;48831,000000;1765796156662045;42663,000000;1765796156661471;0
544;1765796156662046;48831,000000;1765796156662045;48831,000000;1765796156662046;0
545;1765796156662631;54485,000000;1765796156662631;48831,000000;1765796156662046;0
546;1765796156662632;54485,000000;1765796156662631;54485,000000;1765796156662632;0
547;1765796156663184;57569,000000;1765796156663184;57569,000000;1765796156663184;0
548;1765796156663664;63737,000000;1765796156663664;57569,000000;1765796156663184;0
549;1765796156663665;63737,000000;1765796156663664;63737,000000;1765796156663665;0
550;1765796156664294;3599,000000;1765796156664294;63737,000000;1765796156663665;0
551;1765796156664295;3599,000000;1765796156664294;3599,000000;1765796156664295;0
552;1765796156664936;9253,000000;1765796156664936;3599,000000;1765796156664295;0
553;1765796156664937;9253,000000;1765796156664936;9253,000000;1765796156664937;0
554;1765796156665459;15421,000000;1765796156665459;9253,000000;1765796156664937;0
555;1765796156665460;15421,000000;1765796156665459;15421,000000;1765796156665460;0
556;1765796156666259;21075,000000;1765796156666259;15421,000000;1765796156665460;0
557;1765796156666260;21075,000000;1765796156666259;21075,000000;1765796156666260;0
558;1765796156666632;27243,000000;1765796156666632;21075,000000;1765796156666260;0
559;1765796156666633;27243,000000;1765796156666632;27243,000000;1765796156666633;0
560;1765796156667076;27243,000000;1765796156666632;32897,000000;1765796156667076;0
561;1765796156667677;13879,000000;1765796156667677;32897,000000;1765796156667076;0
562;1765796156667678;13879,000000;1765796156667677;13879,000000;1765796156667678;0
563;1765796156668197;17991,000000;1765796156668197;13879,000000;1765796156667678;0
564;1765796156668198;17991,000000;1765796156668197;17991,000000;1765796156668198;0
565;1765796156668794;25701,000000;1765796156668794;17991,000000;1765796156668198;0
566;1765796156668795;25701,000000;1765796156668794;25701,000000;1765796156668795;0
567;1765796156670410;29299,000000;1765796156670410;25701,000000;1765796156668795;0
568;1765796156670412;29299,000000;1765796156670410;29299,000000;1765796156670412;0
569;1765796156673426;40093,000000;1765796156673426;29299,000000;1765796156670412;0
570;1765796156673429;40093,000000;1765796156673426;40093,000000;1765796156673429;0
571;1765796156674548;40093,000000;1765796156673426;45233,000000;1765796156674548;0
572;1765796156718152;48831,000000;1765796156718152;45233,000000;1765796156674548;0
573;1765796156718155;48831,000000;1765796156718152;48831,000000;1765796156718155;0
574;1765796156718430;54485,000000;1765796156718430;48831,000000;1765796156718155;0
575;1765796156718433;54485,000000;1765796156718430;54485,000000;1765796156718433;0
576;1765796156718779;60139,000000;1765796156718779;54485,000000;1765796156718433;0
577;1765796156718781;60139,000000;1765796156718779;60139,000000;1765796156718781;0
578;1765796156719542;60139,000000;1765796156718779;1,000000;1765796156719542;0
579;1765796156723547;3085,000000;1765796156723547;1,000000;1765796156719542;0
580;1765796156723552;3085,000000;1765796156723547;3085,000000;1765796156723552;0
581;1765796156723947;9253,000000;1765796156723947;3085,000000;1765796156723552;0
582;1765796156723950;9253,000000;1765796156723947;9253,000000;1765796156723950;0
583;1765796156724975;17991,000000;1765796156724975;9253,000000;1765796156723950;0
584;1765796156724976;17991,000000;1765796156724975;17991,000000;1765796156724976;0
585;1765796156725107;24159,000000;1765796156725107;17991,000000;1765796156724976;0
586;1765796156725108;24159,000000;1765796156725107;24159,000000;1765796156725108;0
587;1765796156725300;24159,000000;1765796156725107;29813,000000;1765796156725300;0
588;1765796156725419;32897,000000;1765796156725419;29813,000000;1765796156725300;0
589;1765796156725420;32897,000000;1765796156725419;32897,000000;1765796156725420;0
590;1765796156725484;39065,000000;1765796156725484;32897,000000;1765796156725420;0
591;1765796156725486;39065,000000;1765796156725484;39065,000000;1765796156725486;0
592;1765796156725543;45233,000000;1765796156725543;39065,000000;1765796156725486;0
593;1765796156725544;45233,000000;1765796156725543;45233,000000;1765796156725544;0
594;1765796156725617;45233,000000;1765796156725543;50373,000000;1765796156725617;0
595;1765796156725682;45233,000000;1765796156725543;52943,000000;1765796156725682;0
596;1765796156726245;55513,000000;1765796156726245;52943,000000;1765796156725682;0
597;1765796156726246;55513,000000;1765796156726245;55513,000000;1765796156726246;0
598;1765796156726589;62195,000000;1765796156726589;55513,000000;1765796156726246;0
599;1765796156726590;62195,000000;1765796156726589;62195,000000;1765796156726590;0
600;1765796156727552;2571,000000;1765796156727552;62195,000000;1765796156726590;0
601;1765796156727553;2571,000000;1765796156727552;2571,000000;1765796156727553;0
602;1765796156727919;60653,000000;1765796156727919;2571,000000;1765796156727553;0
603;1765796156727920;60653,000000;1765796156727919;60653,000000;1765796156727920;0
604;1765796156728352;60653,000000;1765796156727919;65279,000000;1765796156728352;0
605;1765796156728924;60653,000000;1765796156727919;772,000000;1765796156728924;0
606;1765796156729447;6683,000000;1765796156729447;772,000000;1765796156728924;0
607;1765796156729449;6683,000000;1765796156729447;6683,000000;1765796156729449;0
608;1765796156729981;12337,000000;1765796156729981;6683,000000;1765796156729449;0
609;1765796156729982;12337,000000;1765796156729981;12337,000000;1765796156729982;0
610;1765796156730558;17991,000000;1765796156730558;12337,000000;1765796156729982;0
611;1765796156730559;17991,000000;1765796156730558;17991,000000;1765796156730559;0
612;1765796156730980;23645,000000;1765796156730980;17991,000000;1765796156730559;0
613;1765796156730982;23645,000000;1765796156730980;23645,000000;1765796156730982;0
614;1765796156778247;29813,000000;1765796156778247;23645,000000;1765796156730982;0
615;1765796156778250;29813,000000;1765796156778247;29813,000000;1765796156778250;0
616;1765796156778586;36495,000000;1765796156778586;29813,000000;1765796156778250;0
617;1765796156778589;36495,000000;1765796156778586;36495,000000;1765796156778589;0
618;1765796156778946;41635,000000;1765796156778946;36495,000000;1765796156778589;0
619;1765796156778949;41635,000000;1765796156778946;41635,000000;1765796156778949;0
620;1765796156779350;47289,000000;1765796156779350;41635,000000;1765796156778949;0
621;1765796156779352;47289,000000;1765796156779350;47289,000000;1765796156779352;0
622;1765796156779998;53457,000000;1765796156779998;47289,000000;1765796156779352;0
623;1765796156780002;53457,000000;1765796156779998;53457,000000;1765796156780002;0
624;1765796156780459;59111,000000;1765796156780459;53457,000000;1765796156780002;0
625;1765796156780461;59111,000000;1765796156780459;59111,000000;1765796156780461;0
626;1765796156780994;65279,000000;1765796156780994;59111,000000;1765796156780461;0
627;1765796156780995;65279,000000;1765796156780994;65279,000000;1765796156780995;0
628;1765796156781522;5655,000000;1765796156781522;65279,000000;1765796156780995;0
629;1765796156781523;5655,000000;1765796156781522;5655,000000;1765796156781523;0
630;1765796156782074;11309,000000;1765796156782074;5655,000000;1765796156781523;0
631;1765796156782075;11309,000000;1765796156782074;11309,000000;1765796156782075;0
632;1765796156782611;17477,000000;1765796156782611;11309,000000;1765796156782075;0
633;1765796156782612;17477,000000;1765796156782611;17477,000000;1765796156782612;0
634;1765796156783192;23131,000000;1765796156783192;17477,000000;1765796156782612;0
635;1765796156783193;23131,000000;1765796156783192;23131,000000;1765796156783193;0
636;1765796156783634;29299,000000;1765796156783634;23131,000000;1765796156783193;0
637;1765796156783635;29299,000000;1765796156783634;29299,000000;1765796156783635;0
638;1765796156784351;35467,000000;1765796156784351;29299,000000;1765796156783635;0
639;1765796156784353;35467,000000;1765796156784351;35467,000000;1765796156784353;0
640;1765796156784990;41121,000000;1765796156784990;35467,000000;1765796156784353;0
641;1765796156784991;41121,000000;1765796156784990;41121,000000;1765796156784991;0
642;1765796156785582;46775,000000;1765796156785582;41121,000000;1765796156784991;0
643;1765796156785583;46775,000000;1765796156785582;46775,000000;1765796156785583;0
644;1765796156786435;46775,000000;1765796156785582;52429,000000;1765796156786435;0
645;1765796156790608;54999,000000;1765796156790608;52429,000000;1765796156786435;0
646;1765796156790612;54999,000000;1765796156790608;54999,000000;1765796156790612;0
647;1765796156790836;61681,000000;1765796156790836;54999,000000;1765796156790612;0
648;1765796156790837;61681,000000;1765796156790836;61681,000000;1765796156790837;0
649;1765796156791917;40093,000000;1765796156791917;61681,000000;1765796156790837;0
650;1765796156791918;40093,000000;1765796156791917;40093,000000;1765796156791918;0
651;1765796156792026;46775,000000;1765796156792026;40093,000000;1765796156791918;0
652;1765796156792028;46775,000000;1765796156792026;46775,000000;1765796156792028;0
653;1765796156792126;46775,000000;1765796156792026;53457,000000;1765796156792126;0
654;1765796156792207;57569,000000;1765796156792207;53457,000000;1765796156792126;0
655;1765796156792208;57569,000000;1765796156792207;57569,000000;1765796156792208;0
656;1765796156792261;64765,000000;1765796156792261;57569,000000;1765796156792208;0
657;1765796156792263;64765,000000;1765796156792261;64765,000000;1765796156792263;0
658;1765796156792313;5141,000000;1765796156792313;64765,000000;1765796156792263;0
659;1765796156792314;5141,000000;1765796156792313;5141,000000;1765796156792314;0
660;1765796156838380;11309,000000;1765796156838380;5141,000000;1765796156792314;0
661;1765796156838383;11309,000000;1765796156838380;11309,000000;1765796156838383;0
662;1765796156838767;16963,000000;1765796156838767;11309,000000;1765796156838383;0
663;1765796156838768;16963,000000;1765796156838767;16963,000000;1765796156838768;0
664;1765796156838935;23131,000000;1765796156838935;16963,000000;1765796156838768;0
665;1765796156838936;23131,000000;1765796156838935;23131,000000;1765796156838936;0
666;1765796156839354;28785,000000;1765796156839354;23131,000000;1765796156838936;0
667;1765796156839356;28785,000000;1765796156839354;28785,000000;1765796156839356;0
668;1765796156840064;34953,000000;1765796156840064;28785,000000;1765796156839356;0
669;1765796156840065;34953,000000;1765796156840064;34953,000000;1765796156840065;0
670;1765796156840595;40607,000000;1765796156840595;34953,000000;1765796156840065;0
671;1765796156840596;40607,000000;1765796156840595;40607,000000;1765796156840596;0
672;1765796156840948;46775,000000;1765796156840948;40607,000000;1765796156840596;0
673;1765796156840949;46775,000000;1765796156840948;46775,000000;1765796156840949;0
674;1765796156841558;52429,000000;1765796156841558;46775,000000;1765796156840949;0
675;1765796156841559;52429,000000;1765796156841558;52429,000000;1765796156841559;0
676;1765796156842290;58597,000000;1765796156842290;52429,000000;1765796156841559;0
677;1765796156842291;58597,000000;1765796156842290;58597,000000;1765796156842291;0
678;1765796156842773;58597,000000;1765796156842290;64251,000000;1765796156842773;0
679;1765796156843874;1543,000000;1765796156843874;64251,000000;1765796156842773;0
680;1765796156843875;1543,000000;1765796156843874;1543,000000;1765796156843875;0
681;1765796156848091;7711,000000;1765796156848091;1543,000000;1765796156843875;0
682;1765796156848093;7711,000000;1765796156848091;7711,000000;1765796156848093;0
683;1765796156849895;13879,000000;1765796156849895;7711,000000;1765796156848093;0
684;1765796156849896;13879,000000;1765796156849895;13879,000000;1765796156849896;0
685;1765796156850139;21589,000000;1765796156850139;13879,000000;1765796156849896;0
686;1765796156850140;21589,000000;1765796156850139;21589,000000;1765796156850140;0
687;1765796156850219;28271,000000;1765796156850219;21589,000000;1765796156850140;0
688;1765796156850220;28271,000000;1765796156850219;28271,000000;1765796156850220;0
689;1765796156850365;33925,000000;1765796156850365;28271,000000;1765796156850220;0
690;1765796156850366;33925,000000;1765796156850365;33925,000000;1765796156850366;0
691;1765796156850509;40093,000000;1765796156850509;33925,000000;1765796156850366;0
692;1765796156850510;40093,000000;1765796156850509;40093,000000;1765796156850510;0
693;1765796156850566;21589,000000;1765796156850566;21589,000000;1765796156850566;0
694;1765796156850596;28271,000000;1765796156850596;28271,000000;1765796156850596;0
695;1765796156850700;34953,000000;1765796156850700;28271,000000;1765796156850596;0
696;1765796156850701;34953,000000;1765796156850700;34953,000000;1765796156850701;0
697;1765796156850871;43691,000000;1765796156850871;34953,000000;1765796156850701;0
698;1765796156850873;43691,000000;1765796156850871;43691,000000;1765796156850873;0
699;1765796156851313;49345,000000;1765796156851313;43691,000000;1765796156850873;0
700;1765796156851315;49345,000000;1765796156851313;49345,000000;1765796156851315;0
701;1765796156851398;49345,000000;1765796156851313;54999,000000;1765796156851398;0
702;1765796156898694;58597,000000;1765796156898694;54999,000000;1765796156851398;0
703;1765796156898695;58597,000000;1765796156898694;58597,000000;1765796156898695;0
704;1765796156898805;64251,000000;1765796156898805;58597,000000;1765796156898695;0
705;1765796156898806;64251,000000;1765796156898805;64251,000000;1765796156898806;0
706;1765796156899361;4113,000000;1765796156899361;64251,000000;1765796156898806;0
707;1765796156899362;4113,000000;1765796156899361;4113,000000;1765796156899362;0
708;1765796156899503;10281,000000;1765796156899503;4113,000000;1765796156899362;0
709;1765796156899504;10281,000000;1765796156899503;10281,000000;1765796156899504;0
710;1765796156900639;15935,000000;1765796156900639;10281,000000;1765796156899504;0
711;1765796156900642;15935,000000;1765796156900639;15935,000000;1765796156900642;0
712;1765796156900786;22103,000000;1765796156900786;15935,000000;1765796156900642;0
713;1765796156900789;22103,000000;1765796156900786;22103,000000;1765796156900789;0
714;1765796156901917;30841,000000;1765796156901917;22103,000000;1765796156900789;0
715;1765796156901919;30841,000000;1765796156901917;30841,000000;1765796156901919;0
716;1765796156902520;37009,000000;1765796156902520;30841,000000;1765796156901919;0
717;1765796156902521;37009,000000;1765796156902520;37009,000000;1765796156902521;0
718;1765796156905539;45747,000000;1765796156905539;37009,000000;1765796156902521;0
719;1765796156905541;45747,000000;1765796156905539;45747,000000;1765796156905541;0
720;1765796156905670;51915,000000;1765796156905670;45747,000000;1765796156905541;0
721;1765796156905671;51915,000000;1765796156905670;51915,000000;1765796156905671;0
722;1765796156906140;51915,000000;1765796156905670;60139,000000;1765796156906140;0
723;1765796156907723;62709,000000;1765796156907723;60139,000000;1765796156906140;0
724;1765796156907725;62709,000000;1765796156907723;62709,000000;1765796156907725;0
725;1765796156907889;3599,000000;1765796156907889;62709,000000;1765796156907725;0
726;1765796156907890;3599,000000;1765796156907889;3599,000000;1765796156907890;0
727;1765796156908470;9253,000000;1765796156908470;3599,000000;1765796156907890;0
728;1765796156908471;9253,000000;1765796156908470;9253,000000;1765796156908471;0
729;1765796156908565;15421,000000;1765796156908565;9253,000000;1765796156908471;0
730;1765796156908566;15421,000000;1765796156908565;15421,000000;1765796156908566;0
731;1765796156909118;6169,000000;1765796156909118;15421,000000;1765796156908566;0
732;1765796156909119;6169,000000;1765796156909118;6169,000000;1765796156909119;0
733;1765796156909260;28931,000000;1765796156909260;6169,000000;1765796156909119;0
734;1765796156909792;16449,000000;1765796156909792;6169,000000;1765796156909119;0
735;1765796156909794;16449,000000;1765796156909792;16449,000000;1765796156909794;0
736;1765796156910002;21589,000000;1765796156910002;16449,000000;1765796156909794;0
737;1765796156910003;21589,000000;1765796156910002;21589,000000;1765796156910003;0
738;1765796156910480;27757,000000;1765796156910480;27757,000000;1765796156910480;0
739;1765796156911535;27757,000000;1765796156910480;33411,000000;1765796156911535;0
740;1765796156958299;37009,000000;1765796156958299;33411,000000;1765796156911535;0
741;1765796156958303;37009,000000;1765796156958299;37009,000000;1765796156958303;0
742;1765796156958461;42663,000000;1765796156958461;37009,000000;1765796156958303;0
743;1765796156958464;42663,000000;1765796156958461;42663,000000;1765796156958464;0
744;1765796156958815;48317,000000;1765796156958815;42663,000000;1765796156958464;0
745;1765796156958816;48317,000000;1765796156958815;48317,000000;1765796156958816;0
746;1765796156959473;54485,000000;1765796156959473;48317,000000;1765796156958816;0
747;1765796156959475;54485,000000;1765796156959473;54485,000000;1765796156959475;0
748;1765796156959875;60139,000000;1765796156959875;54485,000000;1765796156959475;0
749;1765796156959876;60139,000000;1765796156959875;60139,000000;1765796156959876;0
750;1765796156960535;515,000000;1765796156960535;60139,000000;1765796156959876;0
751;1765796156960536;515,000000;1765796156960535;515,000000;1765796156960536;0
752;1765796156961043;6169,000000;1765796156961043;515,000000;1765796156960536;0
753;1765796156961044;6169,000000;1765796156961043;6169,000000;1765796156961044;0
754;1765796156961639;12337,000000;1765796156961639;6169,000000;1765796156961044;0
755;1765796156961640;12337,000000;1765796156961639;12337,000000;1765796156961640;0
756;1765796156962079;18505,000000;1765796156962079;12337,000000;1765796156961640;0
757;1765796156962080;18505,000000;1765796156962079;18505,000000;1765796156962080;0
758;1765796156962858;24159,000000;1765796156962858;18505,000000;1765796156962080;0
759;1765796156962860;24159,000000;1765796156962858;24159,000000;1765796156962860;0
760;1765796156963707;30327,000000;1765796156963707;24159,000000;1765796156962860;0
761;1765796156963708;30327,000000;1765796156963707;30327,000000;1765796156963708;0
762;1765796156965568;35981,000000;1765796156965568;30327,000000;1765796156963708;0
763;1765796156965570;35981,000000;1765796156965568;35981,000000;1765796156965570;0
764;1765796156965692;39065,000000;1765796156965692;35981,000000;1765796156965570;0
765;1765796156965693;39065,000000;1765796156965692;39065,000000;1765796156965693;0
766;1765796156965787;44719,000000;1765796156965787;39065,000000;1765796156965693;0
767;1765796156965788;44719,000000;1765796156965787;44719,000000;1765796156965788;0
768;1765796156965944;50373,000000;1765796156965944;44719,000000;1765796156965788;0
769;1765796156965946;50373,000000;1765796156965944;50373,000000;1765796156965946;0
770;1765796156966295;56541,000000;1765796156966295;50373,000000;1765796156965946;0
771;1765796156966296;56541,000000;1765796156966295;56541,000000;1765796156966296;0
772;1765796156966732;62709,000000;1765796156966732;56541,000000;1765796156966296;0
773;1765796156966734;62709,000000;1765796156966732;62709,000000;1765796156966734;0
774;1765796156967326;2571,000000;1765796156967326;62709,000000;1765796156966734;0
775;1765796156967327;2571,000000;1765796156967326;2571,000000;1765796156967327;0
776;1765796156967846;53457,000000;1765796156967846;2571,000000;1765796156967327;0
777;1765796156967848;53457,000000;1765796156967846;53457,000000;1765796156967848;0
778;1765796156968542;60139,000000;1765796156968542;53457,000000;1765796156967848;0
779;1765796156968543;60139,000000;1765796156968542;60139,000000;1765796156968543;0
780;1765796156969093;1,000000;1765796156969093;60139,000000;1765796156968543;0
781;1765796156969094;1,000000;1765796156969093;1,000000;1765796156969094;0
782;1765796156971423;6169,000000;1765796156971423;1,000000;1765796156969094;0
783;1765796156971427;6169,000000;1765796156971423;6169,000000;1765796156971427;0
784;1765796156972226;12851,000000;1765796156972226;6169,000000;1765796156971427;0
785;1765796156972228;12851,000000;1765796156972226;12851,000000;1765796156972228;0
786;1765796157017997;17991,000000;1765796157017997;12851,000000;1765796156972228;0
787;1765796157017999;17991,000000;1765796157017997;17991,000000;1765796157017999;0
788;1765796157018262;24159,000000;1765796157018262;17991,000000;1765796157017999;0
789;1765796157018263;24159,000000;1765796157018262;24159,000000;1765796157018263;0
790;1765796157018687;29813,000000;1765796157018687;24159,000000;1765796157018263;0
791;1765796157018688;29813,000000;1765796157018687;29813,000000;1765796157018688;0
792;1765796157019298;35981,000000;1765796157019298;29813,000000;1765796157018688;0
793;1765796157019300;35981,000000;1765796157019298;35981,000000;1765796157019300;0
794;1765796157020538;41635,000000;1765796157020538;35981,000000;1765796157019300;0
795;1765796157020540;41635,000000;1765796157020538;41635,000000;1765796157020540;0
796;1765796157020696;47803,000000;1765796157020696;41635,000000;1765796157020540;0
797;1765796157020697;47803,000000;1765796157020696;47803,000000;1765796157020697;0
798;1765796157021119;53457,000000;1765796157021119;47803,000000;1765796157020697;0
799;1765796157021120;53457,000000;1765796157021119;53457,000000;1765796157021120;0
800;1765796157022254;59625,000000;1765796157022254;53457,000000;1765796157021120;0
801;1765796157022260;59625,000000;1765796157022254;59625,000000;1765796157022260;0
802;1765796157023281;65279,000000;1765796157023281;59625,000000;1765796157022260;0
803;1765796157023290;65279,000000;1765796157023281;65279,000000;1765796157023290;0
804;1765796157023939;5655,000000;1765796157023939;65279,000000;1765796157023290;0
805;1765796157023943;5655,000000;1765796157023939;5655,000000;1765796157023943;0
806;1765796157024763;11309,000000;1765796157024763;5655,000000;1765796157023943;0
807;1765796157024769;11309,000000;1765796157024763;11309,000000;1765796157024769;0
808;1765796157025766;17477,000000;1765796157025766;11309,000000;1765796157024769;0
809;1765796157025776;17477,000000;1765796157025766;17477,000000;1765796157025776;0
810;1765796157026404;23645,000000;1765796157026404;17477,000000;1765796157025776;0
811;1765796157026409;23645,000000;1765796157026404;23645,000000;1765796157026409;0
812;1765796157026887;29299,000000;1765796157026887;23645,000000;1765796157026409;0
813;1765796157026890;29299,000000;1765796157026887;29299,000000;1765796157026890;0
814;1765796157027773;34953,000000;1765796157027773;29299,000000;1765796157026890;0
815;1765796157027778;34953,000000;1765796157027773;34953,000000;1765796157027778;0
816;1765796157028604;40607,000000;1765796157028604;34953,000000;1765796157027778;0
817;1765796157028611;40607,000000;1765796157028604;40607,000000;1765796157028611;0
818;1765796157029286;46775,000000;1765796157029286;40607,000000;1765796157028611;0
819;1765796157029289;46775,000000;1765796157029286;46775,000000;1765796157029289;0
820;1765796157029746;52943,000000;1765796157029746;46775,000000;1765796157029289;0
821;1765796157029749;52943,000000;1765796157029746;52943,000000;1765796157029749;0
822;1765796157030122;34439,000000;1765796157030122;52943,000000;1765796157029749;0
823;1765796157030126;34439,000000;1765796157030122;34439,000000;1765796157030126;0
824;1765796157031027;41121,000000;1765796157031027;34439,000000;1765796157030126;0
825;1765796157031031;41121,000000;1765796157031027;41121,000000;1765796157031031;0
826;1765796157032030;47803,000000;1765796157032030;41121,000000;1765796157031031;0
827;1765796157032033;47803,000000;1765796157032030;47803,000000;1765796157032033;0
828;1765796157032270;53457,000000;1765796157032270;47803,000000;1765796157032033;0
829;1765796157032273;53457,000000;1765796157032270;53457,000000;1765796157032273;0
830;1765796157032497;59111,000000;1765796157032497;53457,000000;1765796157032273;0
831;1765796157032499;59111,000000;1765796157032497;59111,000000;1765796157032499;0
832;1765796157032716;62709,000000;1765796157032716;59111,000000;1765796157032499;0
833;1765796157032720;62709,000000;1765796157032716;62709,000000;1765796157032720;0
834;1765796157078279;2571,000000;1765796157078279;62709,000000;1765796157032720;0
835;1765796157078280;2571,000000;1765796157078279;2571,000000;1765796157078280;0
836;1765796157078469;8225,000000;1765796157078469;2571,000000;1765796157078280;0
837;1765796157078471;8225,000000;1765796157078469;8225,000000;1765796157078471;0
838;1765796157078718;13879,000000;1765796157078718;8225,000000;1765796157078471;0
839;1765796157078719;13879,000000;1765796157078718;13879,000000;1765796157078719;0
840;1765796157079425;20047,000000;1765796157079425;13879,000000;1765796157078719;0
841;1765796157079426;20047,000000;1765796157079425;20047,000000;1765796157079426;0
842;1765796157080395;28785,000000;1765796157080395;20047,000000;1765796157079426;0
843;1765796157080396;28785,000000;1765796157080395;28785,000000;1765796157080396;0
844;1765796157081012;34953,000000;1765796157081012;28785,000000;1765796157080396;0
845;1765796157081013;34953,000000;1765796157081012;34953,000000;1765796157081013;0
846;1765796157081466;34953,000000;1765796157081012;40607,000000;1765796157081466;0
847;1765796157082231;43691,000000;1765796157082231;40607,000000;1765796157081466;0
848;1765796157082232;43691,000000;1765796157082231;43691,000000;1765796157082232;0
849;1765796157082615;49859,000000;1765796157082615;43691,000000;1765796157082232;0
850;1765796157082616;49859,000000;1765796157082615;49859,000000;1765796157082616;0
851;1765796157083333;55513,000000;1765796157083333;49859,000000;1765796157082616;0
852;1765796157083335;55513,000000;1765796157083333;55513,000000;1765796157083335;0
853;1765796157083829;55513,000000;1765796157083333;58597,000000;1765796157083829;0
854;1765796157084536;61681,000000;1765796157084536;58597,000000;1765796157083829;0
855;1765796157084537;61681,000000;1765796157084536;61681,000000;1765796157084537;0
856;1765796157085048;1543,000000;1765796157085048;61681,000000;1765796157084537;0
857;1765796157085049;1543,000000;1765796157085048;1543,000000;1765796157085049;0
858;1765796157085617;7197,000000;1765796157085617;1543,000000;1765796157085049;0
859;1765796157085619;7197,000000;1765796157085617;7197,000000;1765796157085619;0
860;1765796157086262;13365,000000;1765796157086262;7197,000000;1765796157085619;0
861;1765796157086264;13365,000000;1765796157086262;13365,000000;1765796157086264;0
862;1765796157086818;19019,000000;1765796157086818;13365,000000;1765796157086264;0
863;1765796157086820;19019,000000;1765796157086818;19019,000000;1765796157086820;0
864;1765796157087649;25187,000000;1765796157087649;19019,000000;1765796157086820;0
865;1765796157087651;25187,000000;1765796157087649;25187,000000;1765796157087651;0
866;1765796157088130;12851,000000;1765796157088130;25187,000000;1765796157087651;0
867;1765796157088131;12851,000000;1765796157088130;12851,000000;1765796157088131;0
868;1765796157088537;19533,000000;1765796157088537;12851,000000;1765796157088131;0
869;1765796157088539;19533,000000;1765796157088537;19533,000000;1765796157088539;0
870;1765796157090235;26215,000000;1765796157090235;19533,000000;1765796157088539;0
871;1765796157090239;26215,000000;1765796157090235;26215,000000;1765796157090239;0
872;1765796157090553;31355,000000;1765796157090553;26215,000000;1765796157090239;0
873;1765796157090556;31355,000000;1765796157090553;31355,000000;1765796157090556;0
874;1765796157090994;37523,000000;1765796157090994;31355,000000;1765796157090556;0
875;1765796157090997;37523,000000;1765796157090994;37523,000000;1765796157090997;0
876;1765796157091460;43691,000000;1765796157091460;37523,000000;1765796157090997;0
877;1765796157091465;43691,000000;1765796157091460;43691,000000;1765796157091465;0
878;1765796157138577;49345,000000;1765796157138577;43691,000000;1765796157091465;0
879;1765796157138585;49345,000000;1765796157138577;49345,000000;1765796157138585;0
880;1765796157141915;58083,000000;1765796157141915;49345,000000;1765796157138585;0
881;1765796157141921;58083,000000;1765796157141915;58083,000000;1765796157141921;0
882;1765796157144048;64251,000000;1765796157144048;58083,000000;1765796157141921;0
883;1765796157144049;64251,000000;1765796157144048;64251,000000;1765796157144049;0
884;1765796157144113;4113,000000;1765796157144113;64251,000000;1765796157144049;0
885;1765796157144114;4113,000000;1765796157144113;4113,000000;1765796157144114;0
886;1765796157144256;10281,000000;1765796157144256;4113,000000;1765796157144114;0
887;1765796157144257;10281,000000;1765796157144256;10281,000000;1765796157144257;0
888;1765796157144357;19019,000000;1765796157144357;10281,000000;1765796157144257;0
889;1765796157144358;19019,000000;1765796157144357;19019,000000;1765796157144358;0
890;1765796157144390;25187,000000;1765796157144390;19019,000000;1765796157144358;0
891;1765796157144391;25187,000000;1765796157144390;25187,000000;1765796157144391;0
892;1765796157144420;30841,000000;1765796157144420;30841,000000;1765796157144420;0
893;1765796157144463;37009,000000;1765796157144463;37009,000000;1765796157144463;0
894;1765796157144495;43177,000000;1765796157144495;37009,000000;1765796157144463;0
895;1765796157144496;43177,000000;1765796157144495;43177,000000;1765796157144496;0
896;1765796157144537;48831,000000;1765796157144537;43177,000000;1765796157144496;0
897;1765796157144538;48831,000000;1765796157144537;48831,000000;1765796157144538;0
898;1765796157145013;54485,000000;1765796157145013;48831,000000;1765796157144538;0
899;1765796157145014;54485,000000;1765796157145013;54485,000000;1765796157145014;0
900;1765796157145533;60653,000000;1765796157145533;54485,000000;1765796157145014;0
901;1765796157145535;60653,000000;1765796157145533;60653,000000;1765796157145535;0
902;1765796157146076;515,000000;1765796157146076;60653,000000;1765796157145535;0
903;1765796157146077;515,000000;1765796157146076;515,000000;1765796157146077;0
904;1765796157146601;515,000000;1765796157146076;6169,000000;1765796157146601;0
905;1765796157147183;8739,000000;1765796157147183;6169,000000;1765796157146601;0
906;1765796157147185;8739,000000;1765796157147183;8739,000000;1765796157147185;0
907;1765796157147736;61167,000000;1765796157147736;8739,000000;1765796157147185;0
908;1765796157147737;61167,000000;1765796157147736;61167,000000;1765796157147737;0
909;1765796157148248;61167,000000;1765796157147736;515,000000;1765796157148248;0
910;1765796157148757;5141,000000;1765796157148757;515,000000;1765796157148248;0
911;1765796157148758;5141,000000;1765796157148757;5141,000000;1765796157148758;0
912;1765796157149327;9253,000000;1765796157149327;5141,000000;1765796157148758;0
913;1765796157149329;9253,000000;1765796157149327;9253,000000;1765796157149329;0
914;1765796157149857;15935,000000;1765796157149857;9253,000000;1765796157149329;0
915;1765796157149858;15935,000000;1765796157149857;15935,000000;1765796157149858;0
916;1765796157150408;22103,000000;1765796157150408;15935,000000;1765796157149858;0
917;1765796157150409;22103,000000;1765796157150408;22103,000000;1765796157150409;0
918;1765796157151104;27757,000000;1765796157151104;22103,000000;1765796157150409;0
919;1765796157151105;27757,000000;1765796157151104;27757,000000;1765796157151105;0
920;1765796157197996;33925,000000;1765796157197996;27757,000000;1765796157151105;0
921;1765796157197999;33925,000000;1765796157197996;33925,000000;1765796157197999;0
922;1765796157198135;39579,000000;1765796157198135;33925,000000;1765796157197999;0
923;1765796157198138;39579,000000;1765796157198135;39579,000000;1765796157198138;0
924;1765796157198929;39579,000000;1765796157198135;45233,000000;1765796157198929;0
925;1765796157199278;48317,000000;1765796157199278;45233,000000;1765796157198929;0
926;1765796157199279;48317,000000;1765796157199278;48317,000000;1765796157199279;0
927;1765796157199852;54485,000000;1765796157199852;48317,000000;1765796157199279;0
928;1765796157199854;54485,000000;1765796157199852;54485,000000;1765796157199854;0
929;1765796157200359;54485,000000;1765796157199852;60139,000000;1765796157200359;0
930;1765796157202009;54485,000000;1765796157199852;515,000000;1765796157202009;0
931;1765796157202278;3599,000000;1765796157202278;515,000000;1765796157202009;0
932;1765796157202279;3599,000000;1765796157202278;3599,000000;1765796157202279;0
933;1765796157202626;3599,000000;1765796157202278;9253,000000;1765796157202626;0
934;1765796157203379;12337,000000;1765796157203379;9253,000000;1765796157202626;0
935;1765796157203381;12337,000000;1765796157203379;12337,000000;1765796157203381;0
936;1765796157204256;18505,000000;1765796157204256;12337,000000;1765796157203381;0
937;1765796157204259;18505,000000;1765796157204256;18505,000000;1765796157204259;0
938;1765796157204938;24159,000000;1765796157204938;18505,000000;1765796157204259;0
939;1765796157204941;24159,000000;1765796157204938;24159,000000;1765796157204941;0
940;1765796157206246;29813,000000;1765796157206246;24159,000000;1765796157204941;0
941;1765796157206257;29813,000000;1765796157206246;29813,000000;1765796157206257;0
942;1765796157206890;29813,000000;1765796157206246;35467,000000;1765796157206890;0
943;1765796157207334;38037,000000;1765796157207334;35467,000000;1765796157206890;0
944;1765796157207337;38037,000000;1765796157207334;38037,000000;1765796157207337;0
945;1765796157207848;44719,000000;1765796157207848;38037,000000;1765796157207337;0
946;1765796157207853;44719,000000;1765796157207848;44719,000000;1765796157207853;0
947;1765796157208818;50887,000000;1765796157208818;44719,000000;1765796157207853;0
948;1765796157208821;50887,000000;1765796157208818;50887,000000;1765796157208821;0
949;1765796157209224;44205,000000;1765796157209224;50887,000000;1765796157208821;0
950;1765796157209228;44205,000000;1765796157209224;44205,000000;1765796157209228;0
951;1765796157209608;50887,000000;1765796157209608;44205,000000;1765796157209228;0
952;1765796157209611;50887,000000;1765796157209608;50887,000000;1765796157209611;0
953;1765796157209975;57055,000000;1765796157209975;50887,000000;1765796157209611;0
954;1765796157209978;57055,000000;1765796157209975;57055,000000;1765796157209978;0
955;1765796157210276;63223,000000;1765796157210276;57055,000000;1765796157209978;0
956;1765796157210278;63223,000000;1765796157210276;63223,000000;1765796157210278;0
957;1765796157210577;3599,000000;1765796157210577;63223,000000;1765796157210278;0
958;1765796157210579;3599,000000;1765796157210577;3599,000000;1765796157210579;0
959;1765796157258022;9253,000000;1765796157258022;3599,000000;1765796157210579;0
960;1765796157258025;9253,000000;1765796157258022;9253,000000;1765796157258025;0
961;1765796157258317;15421,000000;1765796157258317;9253,000000;1765796157258025;0
962;1765796157258318;15421,000000;1765796157258317;15421,000000;1765796157258318;0
963;1765796157258751;21075,000000;1765796157258751;15421,000000;1765796157258318;0
964;1765796157258752;21075,000000;1765796157258751;21075,000000;1765796157258752;0
965;1765796157259300;26729,000000;1765796157259300;21075,000000;1765796157258752;0
966;1765796157259301;26729,000000;1765796157259300;26729,000000;1765796157259301;0
967;1765796157259836;32897,000000;1765796157259836;26729,000000;1765796157259301;0
968;1765796157259837;32897,000000;1765796157259836;32897,000000;1765796157259837;0
969;1765796157260389;38551,000000;1765796157260389;32897,000000;1765796157259837;0
970;1765796157260390;38551,000000;1765796157260389;38551,000000;1765796157260390;0
971;1765796157261069;44719,000000;1765796157261069;38551,000000;1765796157260390;0
972;1765796157261070;44719,000000;1765796157261069;44719,000000;1765796157261070;0
973;1765796157261547;44719,000000;1765796157261069;50373,000000;1765796157261547;0
974;1765796157262107;53457,000000;1765796157262107;50373,000000;1765796157261547;0
975;1765796157262108;53457,000000;1765796157262107;53457,000000;1765796157262108;0
976;1765796157262581;59625,000000;1765796157262581;53457,000000;1765796157262108;0
977;1765796157262582;59625,000000;1765796157262581;59625,000000;1765796157262582;0
978;1765796157263344;59625,000000;1765796157262581;65279,000000;1765796157263344;0
979;1765796157263827;2571,000000;1765796157263827;65279,000000;1765796157263344;0
980;1765796157263829;2571,000000;1765796157263827;2571,000000;1765796157263829;0
981;1765796157264381;8739,000000;1765796157264381;2571,000000;1765796157263829;0
982;1765796157264383;8739,000000;1765796157264381;8739,000000;1765796157264383;0
983;1765796157265166;14393,000000;1765796157265166;8739,000000;1765796157264383;0
984;1765796157265167;14393,000000;1765796157265166;14393,000000;1765796157265167;0
985;1765796157265566;20047,000000;1765796157265566;14393,000000;1765796157265167;0
986;1765796157265567;20047,000000;1765796157265566;20047,000000;1765796157265567;0
987;1765796157266669;28271,000000;1765796157266669;20047,000000;1765796157265567;0
988;1765796157266670;28271,000000;1765796157266669;28271,000000;1765796157266670;0
989;1765796157267203;34953,000000;1765796157267203;28271,000000;1765796157266670;0
990;1765796157267205;34953,000000;1765796157267203;34953,000000;1765796157267205;0
991;1765796157267800;25701,000000;1765796157267800;34953,000000;1765796157267205;0
992;1765796157267801;25701,000000;1765796157267800;25701,000000;1765796157267801;0
993;1765796157268319;32383,000000;1765796157268319;25701,000000;1765796157267801;0
994;1765796157268320;32383,000000;1765796157268319;32383,000000;1765796157268320;0
995;1765796157268997;39065,000000;1765796157268997;32383,000000;1765796157268320;0
996;1765796157268998;39065,000000;1765796157268997;39065,000000;1765796157268998;0
997;1765796157269899;44205,000000;1765796157269899;39065,000000;1765796157268998;0
998;1765796157269903;44205,000000;1765796157269899;44205,000000;1765796157269903;0
999;1765796157270427;50373,000000;1765796157270427;44205,000000;1765796157269903;0
1000;1765796157270428;50373,000000;1765796157270427;50373,000000;1765796157270428;0
1001;1765796157318149;56541,000000;1765796157318149;50373,000000;1765796157270428;0
1002;1765796157318151;56541,000000;1765796157318149;56541,000000;1765796157318151;0
1003;1765796157318236;62709,000000;1765796157318236;56541,000000;1765796157318151;0
1004;1765796157318237;62709,000000;1765796157318236;62709,000000;1765796157318237;0
1005;1765796157318673;2571,000000;1765796157318673;62709,000000;1765796157318237;0
1006;1765796157318674;2571,000000;1765796157318673;2571,000000;1765796157318674;0
1007;1765796157320081;8225,000000;1765796157320081;2571,000000;1765796157318674;0
1008;1765796157320083;8225,000000;1765796157320081;8225,000000;1765796157320083;0
1009;1765796157320415;13879,000000;1765796157320415;8225,000000;1765796157320083;0
1010;1765796157320417;13879,000000;1765796157320415;13879,000000;1765796157320417;0
1011;1765796157320666;20047,000000;1765796157320666;13879,000000;1765796157320417;0
1012;1765796157320667;20047,000000;1765796157320666;20047,000000;1765796157320667;0
1013;1765796157323080;26215,000000;1765796157323080;20047,000000;1765796157320667;0
1014;1765796157323085;26215,000000;1765796157323080;26215,000000;1765796157323085;0
1015;1765796157324250;31869,000000;1765796157324250;26215,000000;1765796157323085;0
1016;1765796157324254;31869,000000;1765796157324250;31869,000000;1765796157324254;0
1017;1765796157324467;38037,000000;1765796157324467;31869,000000;1765796157324254;0
1018;1765796157324471;38037,000000;1765796157324467;38037,000000;1765796157324471;0
1019;1765796157324919;44205,000000;1765796157324919;38037,000000;1765796157324471;0
1020;1765796157324922;44205,000000;1765796157324919;44205,000000;1765796157324922;0
1021;1765796157325231;49859,000000;1765796157325231;44205,000000;1765796157324922;0
1022;1765796157325234;49859,000000;1765796157325231;49859,000000;1765796157325234;0
1023;1765796157325441;56027,000000;1765796157325441;49859,000000;1765796157325234;0
1024;1765796157325446;56027,000000;1765796157325441;56027,000000;1765796157325446;0
1025;1765796157325660;61681,000000;1765796157325660;56027,000000;1765796157325446;0
1026;1765796157325664;61681,000000;1765796157325660;61681,000000;1765796157325664;0
1027;1765796157326332;1543,000000;1765796157326332;61681,000000;1765796157325664;0
1028;1765796157326335;1543,000000;1765796157326332;1543,000000;1765796157326335;0
1029;1765796157326791;7197,000000;1765796157326791;1543,000000;1765796157326335;0
1030;1765796157326795;7197,000000;1765796157326791;7197,000000;1765796157326795;0
1031;1765796157326901;13365,000000;1765796157326901;7197,000000;1765796157326795;0
1032;1765796157326903;13365,000000;1765796157326901;13365,000000;1765796157326903;0
1033;1765796157327441;19533,000000;1765796157327441;13365,000000;1765796157326903;0
1034;1765796157327443;19533,000000;1765796157327441;19533,000000;1765796157327443;0
1035;1765796157327822;25187,000000;1765796157327822;19533,000000;1765796157327443;0
1036;1765796157327824;25187,000000;1765796157327822;25187,000000;1765796157327824;0
1037;1765796157328351;7197,000000;1765796157328351;25187,000000;1765796157327824;0
1038;1765796157328353;7197,000000;1765796157328351;7197,000000;1765796157328353;0
1039;1765796157328525;13879,000000;1765796157328525;7197,000000;1765796157328353;0
1040;1765796157328528;13879,000000;1765796157328525;13879,000000;1765796157328528;0
1041;1765796157330010;20047,000000;1765796157330010;13879,000000;1765796157328528;0
1042;1765796157330011;20047,000000;1765796157330010;20047,000000;1765796157330011;0
1043;1765796157330109;25701,000000;1765796157330109;20047,000000;1765796157330011;0
1044;1765796157330111;25701,000000;1765796157330109;25701,000000;1765796157330111;0
1045;1765796157330197;31869,000000;1765796157330197;25701,000000;1765796157330111;0
1046;1765796157330198;31869,000000;1765796157330197;31869,000000;1765796157330198;0
1047;1765796157377954;37523,000000;1765796157377954;31869,000000;1765796157330198;0
1048;1765796157377956;37523,000000;1765796157377954;37523,000000;1765796157377956;0
1049;1765796157378262;43691,000000;1765796157378262;37523,000000;1765796157377956;0
1050;1765796157378263;43691,000000;1765796157378262;43691,000000;1765796157378263;0
1051;1765796157378757;49345,000000;1765796157378757;43691,000000;1765796157378263;0
1052;1765796157378759;49345,000000;1765796157378757;49345,000000;1765796157378759;0
1053;1765796157379449;55513,000000;1765796157379449;49345,000000;1765796157378759;0
1054;1765796157379450;55513,000000;1765796157379449;55513,000000;1765796157379450;0
1055;1765796157380053;61167,000000;1765796157380053;55513,000000;1765796157379450;0
1056;1765796157380054;61167,000000;1765796157380053;61167,000000;1765796157380054;0
1057;1765796157380475;1543,000000;1765796157380475;61167,000000;1765796157380054;0
1058;1765796157380477;1543,000000;1765796157380475;1543,000000;1765796157380477;0
1059;1765796157380967;7197,000000;1765796157380967;1543,000000;1765796157380477;0
1060;1765796157380969;7197,000000;1765796157380967;7197,000000;1765796157380969;0
1061;1765796157381632;13365,000000;1765796157381632;13365,000000;1765796157381632;0
1062;1765796157382145;19533,000000;1765796157382145;13365,000000;1765796157381632;0
1063;1765796157382146;19533,000000;1765796157382145;19533,000000;1765796157382146;0
1064;1765796157382604;25187,000000;1765796157382604;19533,000000;1765796157382146;0
1065;1765796157382605;25187,000000;1765796157382604;25187,000000;1765796157382605;0
1066;1765796157383224;31355,000000;1765796157383224;25187,000000;1765796157382605;0
1067;1765796157383225;31355,000000;1765796157383224;31355,000000;1765796157383225;0
1068;1765796157383810;37009,000000;1765796157383810;31355,000000;1765796157383225;0
1069;1765796157383811;37009,000000;1765796157383810;37009,000000;1765796157383811;0
1070;1765796157384384;43177,000000;1765796157384384;37009,000000;1765796157383811;0
1071;1765796157384385;43177,000000;1765796157384384;43177,000000;1765796157384385;0
1072;1765796157385070;48831,000000;1765796157385070;43177,000000;1765796157384385;0
1073;1765796157385072;48831,000000;1765796157385070;48831,000000;1765796157385072;0
1074;1765796157385601;54485,000000;1765796157385601;48831,000000;1765796157385072;0
1075;1765796157385603;54485,000000;1765796157385601;54485,000000;1765796157385603;0
1076;1765796157387744;62709,000000;1765796157387744;54485,000000;1765796157385603;0
1077;1765796157387746;62709,000000;1765796157387744;62709,000000;1765796157387746;0
1078;1765796157387984;3599,000000;1765796157387984;3599,000000;1765796157387984;0
1079;1765796157388335;3599,000000;1765796157387984;53971,000000;1765796157388335;0
1080;1765796157388496;58083,000000;1765796157388496;53971,000000;1765796157388335;0
1081;1765796157388499;58083,000000;1765796157388496;58083,000000;1765796157388499;0
1082;1765796157389362;64765,000000;1765796157389362;58083,000000;1765796157388499;0
1083;1765796157389364;64765,000000;1765796157389362;64765,000000;1765796157389364;0
1084;1765796157389623;4113,000000;1765796157389623;64765,000000;1765796157389364;0
1085;1765796157389624;4113,000000;1765796157389623;4113,000000;1765796157389624;0
1086;1765796157390777;10281,000000;1765796157390777;4113,000000;1765796157389624;0
1087;1765796157390779;10281,000000;1765796157390777;10281,000000;1765796157390779;0
1088;1765796157391069;15935,000000;1765796157391069;10281,000000;1765796157390779;0
1089;1765796157391070;15935,000000;1765796157391069;15935,000000;1765796157391070;0
1090;1765796157444048;22103,000000;1765796157444048;15935,000000;1765796157391070;0
1091;1765796157444050;22103,000000;1765796157444048;22103,000000;1765796157444050;0
1092;1765796157444212;27757,000000;1765796157444212;22103,000000;1765796157444050;0
1093;1765796157444213;27757,000000;1765796157444212;27757,000000;1765796157444213;0
1094;1765796157444278;27757,000000;1765796157444212;33411,000000;1765796157444278;0
1095;1765796157444352;36495,000000;1765796157444352;33411,000000;1765796157444278;0
1096;1765796157444353;36495,000000;1765796157444352;36495,000000;1765796157444353;0
1097;1765796157444505;42663,000000;1765796157444505;36495,000000;1765796157444353;0
1098;1765796157444506;42663,000000;1765796157444505;42663,000000;1765796157444506;0
1099;1765796157444579;48317,000000;1765796157444579;42663,000000;1765796157444506;0
1100;1765796157444581;48317,000000;1765796157444579;48317,000000;1765796157444581;0
1101;1765796157444686;54485,000000;1765796157444686;48317,000000;1765796157444581;0
1102;1765796157444688;54485,000000;1765796157444686;54485,000000;1765796157444688;0
1103;1765796157444775;60653,000000;1765796157444775;54485,000000;1765796157444688;0
1104;1765796157444777;60653,000000;1765796157444775;60653,000000;1765796157444777;0
1105;1765796157444854;515,000000;1765796157444854;60653,000000;1765796157444777;0
1106;1765796157444855;515,000000;1765796157444854;515,000000;1765796157444855;0
1107;1765796157444966;3599,000000;1765796157444966;515,000000;1765796157444855;0
1108;1765796157444967;3599,000000;1765796157444966;3599,000000;1765796157444967;0
1109;1765796157445031;9253,000000;1765796157445031;3599,000000;1765796157444967;0
1110;1765796157445032;9253,000000;1765796157445031;9253,000000;1765796157445032;0
1111;1765796157445172;15421,000000;1765796157445172;9253,000000;1765796157445032;0
1112;1765796157445176;15421,000000;1765796157445172;15421,000000;1765796157445176;0
1113;1765796157445292;21589,000000;1765796157445292;15421,000000;1765796157445176;0
1114;1765796157445295;21589,000000;1765796157445292;21589,000000;1765796157445295;0
1115;1765796157445546;27243,000000;1765796157445546;21589,000000;1765796157445295;0
1116;1765796157445548;27243,000000;1765796157445546;27243,000000;1765796157445548;0
1117;1765796157445705;32897,000000;1765796157445705;27243,000000;1765796157445548;0
1118;1765796157445707;32897,000000;1765796157445705;32897,000000;1765796157445707;0
1119;1765796157447092;41121,000000;1765796157447092;32897,000000;1765796157445707;0
1120;1765796157447093;41121,000000;1765796157447092;41121,000000;1765796157447093;0
1121;1765796157447440;47803,000000;1765796157447440;41121,000000;1765796157447093;0
1122;1765796157447441;47803,000000;1765796157447440;47803,000000;1765796157447441;0
1123;1765796157447899;35467,000000;1765796157447899;47803,000000;1765796157447441;0
1124;1765796157447900;35467,000000;1765796157447899;35467,000000;1765796157447900;0
1125;1765796157449145;42149,000000;1765796157449145;35467,000000;1765796157447900;0
1126;1765796157449146;42149,000000;1765796157449145;42149,000000;1765796157449146;0
1127;1765796157497861;48317,000000;1765796157497861;42149,000000;1765796157449146;0
1128;1765796157497863;48317,000000;1765796157497861;48317,000000;1765796157497863;0
1129;1765796157498242;54485,000000;1765796157498242;48317,000000;1765796157497863;0
1130;1765796157498243;54485,000000;1765796157498242;54485,000000;1765796157498243;0
1131;1765796157498722;60139,000000;1765796157498722;54485,000000;1765796157498243;0
1132;1765796157498723;60139,000000;1765796157498722;60139,000000;1765796157498723;0
1133;1765796157499178;515,000000;1765796157499178;60139,000000;1765796157498723;0
1134;1765796157499179;515,000000;1765796157499178;515,000000;1765796157499179;0
1135;1765796157499802;6169,000000;1765796157499802;515,000000;1765796157499179;0
1136;1765796157499803;6169,000000;1765796157499802;6169,000000;1765796157499803;0
1137;1765796157500550;6169,000000;1765796157499802;11823,000000;1765796157500550;0
1138;1765796157500879;14907,000000;1765796157500879;11823,000000;1765796157500550;0
1139;1765796157500880;14907,000000;1765796157500879;14907,000000;1765796157500880;0
1140;1765796157501525;21075,000000;1765796157501525;14907,000000;1765796157500880;0
1141;1765796157501526;21075,000000;1765796157501525;21075,000000;1765796157501526;0
1142;1765796157502007;26729,000000;1765796157502007;21075,000000;1765796157501526;0
1143;1765796157502008;26729,000000;1765796157502007;26729,000000;1765796157502008;0
1144;1765796157502739;32897,000000;1765796157502739;26729,000000;1765796157502008;0
1145;1765796157502740;32897,000000;1765796157502739;32897,000000;1765796157502740;0
1146;1765796157511297;38551,000000;1765796157511297;32897,000000;1765796157502740;0
1147;1765796157511299;38551,000000;1765796157511297;38551,000000;1765796157511299;0
1148;1765796157511850;44719,000000;1765796157511850;44719,000000;1765796157511850;0
1149;1765796157511990;50373,000000;1765796157511990;44719,000000;1765796157511850;0
1150;1765796157511991;50373,000000;1765796157511990;50373,000000;1765796157511991;0
1151;1765796157512230;50373,000000;1765796157511990;56027,000000;1765796157512230;0
1152;1765796157512283;50373,000000;1765796157511990;58597,000000;1765796157512283;0
1153;1765796157512318;61681,000000;1765796157512318;58597,000000;1765796157512283;0
1154;1765796157512320;61681,000000;1765796157512318;61681,000000;1765796157512320;0
1155;1765796157512371;2057,000000;1765796157512371;61681,000000;1765796157512320;0
1156;1765796157512372;2057,000000;1765796157512371;2057,000000;1765796157512372;0
1157;1765796157512426;13879,000000;1765796157512426;2057,000000;1765796157512372;0
1158;1765796157512427;13879,000000;1765796157512426;13879,000000;1765796157512427;0
1159;1765796157512576;20561,000000;1765796157512576;13879,000000;1765796157512427;0
1160;1765796157512577;20561,000000;1765796157512576;20561,000000;1765796157512577;0
1161;1765796157512655;27243,000000;1765796157512655;20561,000000;1765796157512577;0
1162;1765796157512656;27243,000000;1765796157512655;27243,000000;1765796157512656;0
1163;1765796157512722;32383,000000;1765796157512722;27243,000000;1765796157512656;0
1164;1765796157512723;32383,000000;1765796157512722;32383,000000;1765796157512723;0
1165;1765796157512811;38551,000000;1765796157512811;32383,000000;1765796157512723;0
1166;1765796157512812;38551,000000;1765796157512811;38551,000000;1765796157512812;0
1167;1765796157512899;44205,000000;1765796157512899;38551,000000;1765796157512812;0
1168;1765796157512900;44205,000000;1765796157512899;44205,000000;1765796157512900;0
1169;1765796157558954;47803,000000;1765796157558954;44205,000000;1765796157512900;0
1170;1765796157558956;47803,000000;1765796157558954;47803,000000;1765796157558956;0
1171;1765796157561527;53457,000000;1765796157561527;47803,000000;1765796157558956;0
1172;1765796157561529;53457,000000;1765796157561527;53457,000000;1765796157561529;0
1173;1765796157562118;59111,000000;1765796157562118;53457,000000;1765796157561529;0
1174;1765796157562119;59111,000000;1765796157562118;59111,000000;1765796157562119;0
1175;1765796157562621;65279,000000;1765796157562621;59111,000000;1765796157562119;0
1176;1765796157562622;65279,000000;1765796157562621;65279,000000;1765796157562622;0
1177;1765796157563441;5141,000000;1765796157563441;65279,000000;1765796157562622;0
1178;1765796157563442;5141,000000;1765796157563441;5141,000000;1765796157563442;0
1179;1765796157564564;11309,000000;1765796157564564;5141,000000;1765796157563442;0
1180;1765796157564565;11309,000000;1765796157564564;11309,000000;1765796157564565;0
1181;1765796157564975;17477,000000;1765796157564975;11309,000000;1765796157564565;0
1182;1765796157564976;17477,000000;1765796157564975;17477,000000;1765796157564976;0
1183;1765796157565571;23131,000000;1765796157565571;17477,000000;1765796157564976;0
1184;1765796157565572;23131,000000;1765796157565571;23131,000000;1765796157565572;0
1185;1765796157566297;29299,000000;1765796157566297;23131,000000;1765796157565572;0
1186;1765796157566299;29299,000000;1765796157566297;29299,000000;1765796157566299;0
1187;1765796157566787;34953,000000;1765796157566787;29299,000000;1765796157566299;0
1188;1765796157566788;34953,000000;1765796157566787;34953,000000;1765796157566788;0
1189;1765796157567261;41121,000000;1765796157567261;34953,000000;1765796157566788;0
1190;1765796157567262;41121,000000;1765796157567261;41121,000000;1765796157567262;0
1191;1765796157567767;41121,000000;1765796157567261;46775,000000;1765796157567767;0
1192;1765796157568012;49859,000000;1765796157568012;46775,000000;1765796157567767;0
1193;1765796157568014;49859,000000;1765796157568012;49859,000000;1765796157568014;0
1194;1765796157568528;55513,000000;1765796157568528;49859,000000;1765796157568014;0
1195;1765796157568529;55513,000000;1765796157568528;55513,000000;1765796157568529;0
1196;1765796157575740;55513,000000;1765796157568528;61167,000000;1765796157575740;0
1197;1765796157576170;63737,000000;1765796157576170;61167,000000;1765796157575740;0
1198;1765796157576171;63737,000000;1765796157576170;63737,000000;1765796157576171;0
1199;1765796157576683;4627,000000;1765796157576683;63737,000000;1765796157576171;0
1200;1765796157576685;4627,000000;1765796157576683;4627,000000;1765796157576685;0
1201;1765796157577019;10281,000000;1765796157577019;4627,000000;1765796157576685;0
1202;1765796157577020;10281,000000;1765796157577019;10281,000000;1765796157577020;0
1203;1765796157577499;61167,000000;1765796157577499;10281,000000;1765796157577020;0
1204;1765796157577500;61167,000000;1765796157577499;61167,000000;1765796157577500;0
1205;1765796157577801;1543,000000;1765796157577801;61167,000000;1765796157577500;0
1206;1765796157577803;1543,000000;1765796157577801;1543,000000;1765796157577803;0
1207;1765796157578319;8225,000000;1765796157578319;1543,000000;1765796157577803;0
1208;1765796157578320;8225,000000;1765796157578319;8225,000000;1765796157578320;0
1209;1765796157578833;13879,000000;1765796157578833;8225,000000;1765796157578320;0
1210;1765796157578834;13879,000000;1765796157578833;13879,000000;1765796157578834;0
1211;1765796157579531;20047,000000;1765796157579531;13879,000000;1765796157578834;0
1212;1765796157579532;20047,000000;1765796157579531;20047,000000;1765796157579532;0
1213;1765796157580027;25701,000000;1765796157580027;20047,000000;1765796157579532;0
1214;1765796157580045;25701,000000;1765796157580027;25701,000000;1765796157580045;0
1215;1765796157619223;31869,000000;1765796157619223;25701,000000;1765796157580045;0
1216;1765796157619228;31869,000000;1765796157619223;31869,000000;1765796157619228;0
1217;1765796157634850;31869,000000;1765796157619223;37523,000000;1765796157634850;0
1218;1765796157635855;40607,000000;1765796157635855;37523,000000;1765796157634850;0
1219;1765796157635857;40607,000000;1765796157635855;40607,000000;1765796157635857;0
1220;1765796157638314;46261,000000;1765796157638314;40607,000000;1765796157635857;0
1221;1765796157638319;46261,000000;1765796157638314;46261,000000;1765796157638319;0
1222;1765796157646267;52429,000000;1765796157646267;46261,000000;1765796157638319;0
1223;1765796157646269;52429,000000;1765796157646267;52429,000000;1765796157646269;0
1224;1765796157677841;58597,000000;1765796157677841;52429,000000;1765796157646269;0
1225;1765796157677843;58597,000000;1765796157677841;58597,000000;1765796157677843;0
1226;1765796157678598;64251,000000;1765796157678598;58597,000000;1765796157677843;0
1227;1765796157678599;64251,000000;1765796157678598;64251,000000;1765796157678599;0
1228;1765796157678663;4627,000000;1765796157678663;4627,000000;1765796157678663;0
1229;1765796157679202;10281,000000;1765796157679202;4627,000000;1765796157678663;0
1230;1765796157679204;10281,000000;1765796157679202;10281,000000;1765796157679204;0
1231;1765796157679750;16449,000000;1765796157679750;10281,000000;1765796157679204;0
1232;1765796157679751;16449,000000;1765796157679750;16449,000000;1765796157679751;0
1233;1765796157680241;22103,000000;1765796157680241;16449,000000;1765796157679751;0
1234;1765796157680242;22103,000000;1765796157680241;22103,000000;1765796157680242;0
1235;1765796157680898;25187,000000;1765796157680898;22103,000000;1765796157680242;0
1236;1765796157680899;25187,000000;1765796157680898;25187,000000;1765796157680899;0
1237;1765796157681395;30841,000000;1765796157681395;25187,000000;1765796157680899;0
1238;1765796157681397;30841,000000;1765796157681395;30841,000000;1765796157681397;0
1239;1765796157682072;36495,000000;1765796157682072;30841,000000;1765796157681397;0
1240;1765796157682074;36495,000000;1765796157682072;36495,000000;1765796157682074;0
1241;1765796157682630;42663,000000;1765796157682630;36495,000000;1765796157682074;0
1242;1765796157682632;42663,000000;1765796157682630;42663,000000;1765796157682632;0
1243;1765796157683660;42663,000000;1765796157682630;50887,000000;1765796157683660;0
1244;1765796157684275;42149,000000;1765796157684275;50887,000000;1765796157683660;0
1245;1765796157684277;42149,000000;1765796157684275;42149,000000;1765796157684277;0
1246;1765796157685036;48831,000000;1765796157685036;42149,000000;1765796157684277;0
1247;1765796157685038;48831,000000;1765796157685036;48831,000000;1765796157685038;0
1248;1765796157685633;54999,000000;1765796157685633;48831,000000;1765796157685038;0
1249;1765796157685634;54999,000000;1765796157685633;54999,000000;1765796157685634;0
1250;1765796157686234;60653,000000;1765796157686234;54999,000000;1765796157685634;0
1251;1765796157686235;60653,000000;1765796157686234;60653,000000;1765796157686235;0
1252;1765796157687932;515,000000;1765796157687932;60653,000000;1765796157686235;0
1253;1765796157687934;515,000000;1765796157687932;515,000000;1765796157687934;0
1254;1765796157688803;6169,000000;1765796157688803;515,000000;1765796157687934;0
1255;1765796157688808;6169,000000;1765796157688803;6169,000000;1765796157688808;0
1256;1765796157689157;25701,000000;1765796157689157;6169,000000;1765796157688808;0
1257;1765796157689160;25701,000000;1765796157689157;25701,000000;1765796157689160;0
1258;1765796157690435;29813,000000;1765796157690435;25701,000000;1765796157689160;0
1259;1765796157690437;29813,000000;1765796157690435;29813,000000;1765796157690437;0
1260;1765796157690919;37009,000000;1765796157690919;29813,000000;1765796157690437;0
1261;1765796157690921;37009,000000;1765796157690919;37009,000000;1765796157690921;0
1262;1765796157691526;42149,000000;1765796157691526;37009,000000;1765796157690921;0
1263;1765796157691528;42149,000000;1765796157691526;42149,000000;1765796157691528;0
1264;1765796157691795;48317,000000;1765796157691795;42149,000000;1765796157691528;0
1265;1765796157691798;48317,000000;1765796157691795;48317,000000;1765796157691798;0
1266;1765796157692355;53971,000000;1765796157692355;48317,000000;1765796157691798;0
1267;1765796157692357;53971,000000;1765796157692355;53971,000000;1765796157692357;0
1268;1765796157692534;53971,000000;1765796157692355;57055,000000;1765796157692534;0
1269;1765796157738224;60653,000000;1765796157738224;57055,000000;1765796157692534;0
1270;1765796157738228;60653,000000;1765796157738224;60653,000000;1765796157738228;0
1271;1765796157738381;515,000000;1765796157738381;60653,000000;1765796157738228;0
1272;1765796157738383;515,000000;1765796157738381;515,000000;1765796157738383;0
1273;1765796157739124;6169,000000;1765796157739124;515,000000;1765796157738383;0
1274;1765796157739125;6169,000000;1765796157739124;6169,000000;1765796157739125;0
1275;1765796157739778;6169,000000;1765796157739124;11823,000000;1765796157739778;0
1276;1765796157740293;14907,000000;1765796157740293;11823,000000;1765796157739778;0
1277;1765796157740296;14907,000000;1765796157740293;14907,000000;1765796157740296;0
1278;1765796157741021;21075,000000;1765796157741021;14907,000000;1765796157740296;0
1279;1765796157741022;21075,000000;1765796157741021;21075,000000;1765796157741022;0
1280;1765796157741541;29813,000000;1765796157741541;21075,000000;1765796157741022;0
1281;1765796157741543;29813,000000;1765796157741541;29813,000000;1765796157741543;0
1282;1765796157742115;35981,000000;1765796157742115;35981,000000;1765796157742115;0
1283;1765796157742596;41635,000000;1765796157742596;35981,000000;1765796157742115;0
1284;1765796157742597;41635,000000;1765796157742596;41635,000000;1765796157742597;0
1285;1765796157743209;44719,000000;1765796157743209;41635,000000;1765796157742597;0
1286;1765796157743211;44719,000000;1765796157743209;44719,000000;1765796157743211;0
1287;1765796157743781;50887,000000;1765796157743781;44719,000000;1765796157743211;0
1288;1765796157743782;50887,000000;1765796157743781;50887,000000;1765796157743782;0
1289;1765796157745442;59111,000000;1765796157745442;50887,000000;1765796157743782;0
1290;1765796157745443;59111,000000;1765796157745442;59111,000000;1765796157745443;0
1291;1765796157745764;65279,000000;1765796157745764;59111,000000;1765796157745443;0
1292;1765796157745765;65279,000000;1765796157745764;65279,000000;1765796157745765;0
1293;1765796157746184;5141,000000;1765796157746184;65279,000000;1765796157745765;0
1294;1765796157746185;5141,000000;1765796157746184;5141,000000;1765796157746185;0
1295;1765796157746759;11309,000000;1765796157746759;5141,000000;1765796157746185;0
1296;1765796157746761;11309,000000;1765796157746759;11309,000000;1765796157746761;0
1297;1765796157747294;17477,000000;1765796157747294;11309,000000;1765796157746761;0
1298;1765796157747295;17477,000000;1765796157747294;17477,000000;1765796157747295;0
1299;1765796157747829;7197,000000;1765796157747829;17477,000000;1765796157747295;0
1300;1765796157747830;7197,000000;1765796157747829;7197,000000;1765796157747830;0
1301;1765796157748288;11309,000000;1765796157748288;7197,000000;1765796157747830;0
1302;1765796157748289;11309,000000;1765796157748288;11309,000000;1765796157748289;0
1303;1765796157748869;18505,000000;1765796157748869;11309,000000;1765796157748289;0
1304;1765796157748870;18505,000000;1765796157748869;18505,000000;1765796157748870;0
1305;1765796157749387;23645,000000;1765796157749387;18505,000000;1765796157748870;0
1306;1765796157749388;23645,000000;1765796157749387;23645,000000;1765796157749388;0
1307;1765796157750075;29813,000000;1765796157750075;23645,000000;1765796157749388;0
1308;1765796157750076;29813,000000;1765796157750075;29813,000000;1765796157750076;0
1309;1765796157750549;35467,000000;1765796157750549;29813,000000;1765796157750076;0
1310;1765796157750551;35467,000000;1765796157750549;35467,000000;1765796157750551;0
1311;1765796157798366;41635,000000;1765796157798366;35467,000000;1765796157750551;0
1312;1765796157798369;41635,000000;1765796157798366;41635,000000;1765796157798369;0
1313;1765796157798715;47803,000000;1765796157798715;41635,000000;1765796157798369;0
1314;1765796157798717;47803,000000;1765796157798715;47803,000000;1765796157798717;0
1315;1765796157798853;53457,000000;1765796157798853;47803,000000;1765796157798717;0
1316;1765796157798854;53457,000000;1765796157798853;53457,000000;1765796157798854;0
1317;1765796157799631;59111,000000;1765796157799631;53457,000000;1765796157798854;0
1318;1765796157799633;59111,000000;1765796157799631;59111,000000;1765796157799633;0
1319;1765796157799927;65279,000000;1765796157799927;59111,000000;1765796157799633;0
1320;1765796157799928;65279,000000;1765796157799927;65279,000000;1765796157799928;0
1321;1765796157800531;5141,000000;1765796157800531;65279,000000;1765796157799928;0
1322;1765796157800533;5141,000000;1765796157800531;5141,000000;1765796157800533;0
1323;1765796157801369;11309,000000;1765796157801369;5141,000000;1765796157800533;0
1324;1765796157801371;11309,000000;1765796157801369;11309,000000;1765796157801371;0
1325;1765796157801596;11309,000000;1765796157801369;16963,000000;1765796157801596;0
1326;1765796157802384;20047,000000;1765796157802384;16963,000000;1765796157801596;0
1327;1765796157802385;20047,000000;1765796157802384;20047,000000;1765796157802385;0
1328;1765796157805914;26215,000000;1765796157805914;20047,000000;1765796157802385;0
1329;1765796157805920;26215,000000;1765796157805914;26215,000000;1765796157805920;0
1330;1765796157806251;32383,000000;1765796157806251;26215,000000;1765796157805920;0
1331;1765796157806257;32383,000000;1765796157806251;32383,000000;1765796157806257;0
1332;1765796157806709;38037,000000;1765796157806709;32383,000000;1765796157806257;0
1333;1765796157806710;38037,000000;1765796157806709;38037,000000;1765796157806710;0
1334;1765796157806768;44205,000000;1765796157806768;38037,000000;1765796157806710;0
1335;1765796157806769;44205,000000;1765796157806768;44205,000000;1765796157806769;0
1336;1765796157806863;49859,000000;1765796157806863;49859,000000;1765796157806863;0
1337;1765796157806913;55513,000000;1765796157806913;49859,000000;1765796157806863;0
1338;1765796157806914;55513,000000;1765796157806913;55513,000000;1765796157806914;0
1339;1765796157807012;61167,000000;1765796157807012;55513,000000;1765796157806914;0
1340;1765796157807013;61167,000000;1765796157807012;61167,000000;1765796157807013;0
1341;1765796157807243;1543,000000;1765796157807243;61167,000000;1765796157807013;0
1342;1765796157807244;1543,000000;1765796157807243;1543,000000;1765796157807244;0
1343;1765796157807341;7711,000000;1765796157807341;7711,000000;1765796157807341;0
1344;1765796157807791;52943,000000;1765796157807791;7711,000000;1765796157807341;0
1345;1765796157807792;52943,000000;1765796157807791;52943,000000;1765796157807792;0
1346;1765796157808247;58597,000000;1765796157808247;52943,000000;1765796157807792;0
1347;1765796157808248;58597,000000;1765796157808247;58597,000000;1765796157808248;0
1348;1765796157808852;1,000000;1765796157808852;58597,000000;1765796157808248;0
1349;1765796157808853;1,000000;1765796157808852;1,000000;1765796157808853;0
1350;1765796157809396;5141,000000;1765796157809396;1,000000;1765796157808853;0
1351;1765796157809398;5141,000000;1765796157809396;5141,000000;1765796157809398;0
1352;1765796157809970;11309,000000;1765796157809970;5141,000000;1765796157809398;0
1353;1765796157809971;11309,000000;1765796157809970;11309,000000;1765796157809971;0
1354;1765796157810587;16963,000000;1765796157810587;11309,000000;1765796157809971;0
1355;1765796157810588;16963,000000;1765796157810587;16963,000000;1765796157810588;0
1356;1765796157859164;26215,000000;1765796157859164;16963,000000;1765796157810588;0
1357;1765796157859166;26215,000000;1765796157859164;26215,000000;1765796157859166;0
1358;1765796157859343;31869,000000;1765796157859343;26215,000000;1765796157859166;0
1359;1765796157859344;31869,000000;1765796157859343;31869,000000;1765796157859344;0
1360;1765796157859429;37523,000000;1765796157859429;31869,000000;1765796157859344;0
1361;1765796157859430;37523,000000;1765796157859429;37523,000000;1765796157859430;0
1362;1765796157859507;43691,000000;1765796157859507;37523,000000;1765796157859430;0
1363;1765796157859508;43691,000000;1765796157859507;43691,000000;1765796157859508;0
1364;1765796157859849;49345,000000;1765796157859849;43691,000000;1765796157859508;0
1365;1765796157859850;49345,000000;1765796157859849;49345,000000;1765796157859850;0
1366;1765796157860517;55513,000000;1765796157860517;49345,000000;1765796157859850;0
1367;1765796157860520;55513,000000;1765796157860517;55513,000000;1765796157860520;0
1368;1765796157861466;64251,000000;1765796157861466;55513,000000;1765796157860520;0
1369;1765796157861467;64251,000000;1765796157861466;64251,000000;1765796157861467;0
1370;1765796157862040;4627,000000;1765796157862040;64251,000000;1765796157861467;0
1371;1765796157862041;4627,000000;1765796157862040;4627,000000;1765796157862041;0
1372;1765796157863153;4627,000000;1765796157862040;10281,000000;1765796157863153;0
1373;1765796157918177;13365,000000;1765796157918177;10281,000000;1765796157863153;0
1374;1765796157918180;13365,000000;1765796157918177;13365,000000;1765796157918180;0
1375;1765796157918603;19533,000000;1765796157918603;13365,000000;1765796157918180;0
1376;1765796157918605;19533,000000;1765796157918603;19533,000000;1765796157918605;0
1377;1765796157918883;25701,000000;1765796157918883;19533,000000;1765796157918605;0
1378;1765796157918885;25701,000000;1765796157918883;25701,000000;1765796157918885;0
1379;1765796157921325;25701,000000;1765796157918883;30841,000000;1765796157921325;0
1380;1765796157921610;33411,000000;1765796157921610;30841,000000;1765796157921325;0
1381;1765796157921612;33411,000000;1765796157921610;33411,000000;1765796157921612;0
1382;1765796157921751;40093,000000;1765796157921751;33411,000000;1765796157921612;0
1383;1765796157921836;40093,000000;1765796157921751;40093,000000;1765796157921836;0
1384;1765796157923287;45747,000000;1765796157923287;40093,000000;1765796157921836;0
1385;1765796157923294;45747,000000;1765796157923287;45747,000000;1765796157923294;0
1386;1765796157924623;45747,000000;1765796157923287;51401,000000;1765796157924623;0
1387;1765796157928116;33411,000000;1765796157928116;51401,000000;1765796157924623;0
1388;1765796157928118;33411,000000;1765796157928116;33411,000000;1765796157928118;0
1389;1765796157928780;40093,000000;1765796157928780;33411,000000;1765796157928118;0
1390;1765796157928782;40093,000000;1765796157928780;40093,000000;1765796157928782;0
1391;1765796157928957;40093,000000;1765796157928780;46775,000000;1765796157928957;0
1392;1765796157929426;40093,000000;1765796157928780;50373,000000;1765796157929426;0
1393;1765796157930781;53457,000000;1765796157930781;50373,000000;1765796157929426;0
1394;1765796157930783;53457,000000;1765796157930781;53457,000000;1765796157930783;0
1395;1765796157931052;53457,000000;1765796157930781;56027,000000;1765796157931052;0
1396;1765796157931263;53457,000000;1765796157930781;58597,000000;1765796157931263;0
1397;1765796157931345;61167,000000;1765796157931345;61167,000000;1765796157931345;0
1398;1765796157931372;515,000000;1765796157931372;61167,000000;1765796157931345;0
1399;1765796157931373;515,000000;1765796157931372;515,000000;1765796157931373;0
1400;1765796157931455;14907,000000;1765796157931455;14907,000000;1765796157931455;0
1401;1765796157931483;14907,000000;1765796157931455;21075,000000;1765796157931483;0
1402;1765796157931509;25187,000000;1765796157931509;25187,000000;1765796157931509;0
1403;1765796157931535;30327,000000;1765796157931535;30327,000000;1765796157931535;0
1404;1765796157931562;33925,000000;1765796157931562;33925,000000;1765796157931562;0
1405;1765796157931587;39579,000000;1765796157931587;33925,000000;1765796157931562;0
1406;1765796157931588;39579,000000;1765796157931587;39579,000000;1765796157931588;0
1407;1765796157931613;45233,000000;1765796157931613;45233,000000;1765796157931613;0
1408;1765796157978388;51401,000000;1765796157978388;45233,000000;1765796157931613;0
1409;1765796157978390;51401,000000;1765796157978388;51401,000000;1765796157978390;0
1410;1765796157978555;57055,000000;1765796157978555;51401,000000;1765796157978390;0
1411;1765796157978556;57055,000000;1765796157978555;57055,000000;1765796157978556;0
1412;1765796157978699;63223,000000;1765796157978699;57055,000000;1765796157978556;0
1413;1765796157978700;63223,000000;1765796157978699;63223,000000;1765796157978700;0
1414;1765796157979322;63223,000000;1765796157978699;3085,000000;1765796157979322;0
1415;1765796157979825;6169,000000;1765796157979825;3085,000000;1765796157979322;0
1416;1765796157979826;6169,000000;1765796157979825;6169,000000;1765796157979826;0
1417;1765796157980316;12337,000000;1765796157980316;6169,000000;1765796157979826;0
1418;1765796157980317;12337,000000;1765796157980316;12337,000000;1765796157980317;0
1419;1765796157980962;17991,000000;1765796157980962;12337,000000;1765796157980317;0
1420;1765796157980963;17991,000000;1765796157980962;17991,000000;1765796157980963;0
1421;1765796157981477;24159,000000;1765796157981477;24159,000000;1765796157981477;0
1422;1765796157982029;24159,000000;1765796157981477;29813,000000;1765796157982029;0
1423;1765796157982617;32897,000000;1765796157982617;32897,000000;1765796157982617;0
1424;1765796157983176;39065,000000;1765796157983176;32897,000000;1765796157982617;0
1425;1765796157983177;39065,000000;1765796157983176;39065,000000;1765796157983177;0
1426;1765796157984373;47803,000000;1765796157984373;39065,000000;1765796157983177;0
1427;1765796157984374;47803,000000;1765796157984373;47803,000000;1765796157984374;0
1428;1765796157985112;53457,000000;1765796157985112;47803,000000;1765796157984374;0
1429;1765796157985113;53457,000000;1765796157985112;53457,000000;1765796157985113;0
1430;1765796157985560;59111,000000;1765796157985560;53457,000000;1765796157985113;0
1431;1765796157985562;59111,000000;1765796157985560;59111,000000;1765796157985562;0
1432;1765796157986226;65279,000000;1765796157986226;59111,000000;1765796157985562;0
1433;1765796157986227;65279,000000;1765796157986226;65279,000000;1765796157986227;0
1434;1765796157986757;65279,000000;1765796157986226;5141,000000;1765796157986757;0
1435;1765796157989254;7711,000000;1765796157989254;5141,000000;1765796157986757;0
1436;1765796157989260;7711,000000;1765796157989254;7711,000000;1765796157989260;0
1437;1765796157990711;61681,000000;1765796157990711;7711,000000;1765796157989260;0
1438;1765796157990717;61681,000000;1765796157990711;61681,000000;1765796157990717;0
1439;1765796157991189;2571,000000;1765796157991189;61681,000000;1765796157990717;0
1440;1765796157991196;2571,000000;1765796157991189;2571,000000;1765796157991196;0
1441;1765796157991515;2571,000000;1765796157991189;9253,000000;1765796157991515;0
1442;1765796157991932;2571,000000;1765796157991189;772,000000;1765796157991932;0
1443;1765796157992178;16449,000000;1765796157992178;772,000000;1765796157991932;0
1444;1765796157992185;16449,000000;1765796157992178;16449,000000;1765796157992185;0
1445;1765796157992520;16449,000000;1765796157992178;23645,000000;1765796157992520;0
1446;1765796157992784;27243,000000;1765796157992784;23645,000000;1765796157992520;0
