Index;Time_us;Ch1_val_uV;Ch1_ts_us;Ch2_val_uV;Ch2_ts_us;StimState
0;1765480231180879;-1571,505000;1765480231180879;;;0
1;1765480231180881;-1571,505000;1765480231180879;308,295000;1765480231180881;0
2;1765480231180887;-2174,445000;1765480231180887;179,205000;1765480231180887;0
3;1765480231180993;-335,985000;1765480231180993;179,205000;1765480231180887;0
4;1765480231180994;-335,985000;1765480231180993;1062,750000;1765480231180994;0
5;1765480231181005;-756,015000;1765480231181005;1062,750000;1765480231180994;0
6;1765480231181006;-756,015000;1765480231181005;687,180000;1765480231181006;0
7;1765480231181115;-1588,080000;1765480231181115;687,180000;1765480231181006;0
8;1765480231181116;-1588,080000;1765480231181115;261,105000;1765480231181116;0
9;1765480231181121;-2233,530000;1765480231181121;-47,775000;1765480231181121;0
10;1765480231181134;-2428,530000;1765480231181134;214,110000;1765480231181134;0
11;1765480231181137;-1871,025000;1765480231181137;133,965000;1765480231181137;0
12;1765480231181192;-2748,915000;1765480231181192;-550,290000;1765480231181192;0
13;1765480231181195;-2085,135000;1765480231181195;-107,445000;1765480231181195;0
14;1765480231181259;-1833,000000;1765480231181259;-107,445000;1765480231181195;0
15;1765480231181260;-1833,000000;1765480231181259;-91,455000;1765480231181260;0
16;1765480231181262;-1543,620000;1765480231181262;-95,745000;1765480231181262;0
17;1765480231181324;-919,425000;1765480231181324;-95,745000;1765480231181262;0
18;1765480231181325;-919,425000;1765480231181324;197,340000;1765480231181325;0
19;1765480231181327;-2341,170000;1765480231181327;-379,860000;1765480231181327;0
20;1765480231181334;-2171,325000;1765480231181334;-379,860000;1765480231181327;0
21;1765480231181335;-2171,325000;1765480231181334;-322,725000;1765480231181335;0
22;1765480231181535;-696,930000;1765480231181535;-322,725000;1765480231181335;0
23;1765480231181536;-696,930000;1765480231181535;573,690000;1765480231181536;0
24;1765480231181598;-1465,425000;1765480231181598;573,690000;1765480231181536;0
25;1765480231181599;-1465,425000;1765480231181598;106,860000;1765480231181599;0
26;1765480231181642;-1468,740000;1765480231181642;65,715000;1765480231181642;0
27;1765480231181761;-1963,065000;1765480231181761;-239,265000;1765480231181761;0
28;1765480231182283;-636,480000;1765480231182283;-239,265000;1765480231181761;0
29;1765480231182284;-636,480000;1765480231182283;584,805000;1765480231182284;0
30;1765480231183006;-1967,745000;1765480231183006;584,805000;1765480231182284;0
31;1765480231183007;-1967,745000;1765480231183006;-131,235000;1765480231183007;0
32;1765480231183343;-1724,970000;1765480231183343;-131,235000;1765480231183007;0
33;1765480231183344;-1724,970000;1765480231183343;160,095000;1765480231183344;0
34;1765480231184073;-1041,300000;1765480231184073;160,095000;1765480231183344;0
35;1765480231184074;-1041,300000;1765480231184073;458,055000;1765480231184074;0
36;1765480231184356;-425,880000;1765480231184356;458,055000;1765480231184074;0
37;1765480231184357;-425,880000;1765480231184356;611,325000;1765480231184357;0
38;1765480231185060;-653,640000;1765480231185060;611,325000;1765480231184357;0
39;1765480231185061;-653,640000;1765480231185060;616,590000;1765480231185061;0
40;1765480231185525;-1190,280000;1765480231185525;616,590000;1765480231185061;0
41;1765480231185526;-1190,280000;1765480231185525;181,935000;1765480231185526;0
42;1765480231186822;-1216,020000;1765480231186822;181,935000;1765480231185526;0
43;1765480231186823;-1216,020000;1765480231186822;-70,785000;1765480231186823;0
44;1765480231187115;-969,345000;1765480231187115;-70,785000;1765480231186823;0
45;1765480231187118;-969,345000;1765480231187115;133,965000;1765480231187118;0
46;1765480231227980;-1071,720000;1765480231227980;133,965000;1765480231187118;0
47;1765480231227987;-1071,720000;1765480231227980;146,835000;1765480231227987;0
48;1765480231228615;-927,030000;1765480231228615;146,835000;1765480231227987;0
49;1765480231228622;-927,030000;1765480231228615;328,575000;1765480231228622;0
50;1765480231229318;-258,765000;1765480231229318;328,575000;1765480231228622;0
51;1765480231229321;-258,765000;1765480231229318;949,455000;1765480231229321;0
52;1765480231229732;-1269,060000;1765480231229732;949,455000;1765480231229321;0
53;1765480231229736;-1269,060000;1765480231229732;344,370000;1765480231229736;0
54;1765480231229926;-1269,060000;1765480231229732;-146,835000;1765480231229926;0
55;1765480231230171;-1304,745000;1765480231230171;-146,835000;1765480231229926;0
56;1765480231230173;-1304,745000;1765480231230171;260,130000;1765480231230173;0
57;1765480231230207;-1002,690000;1765480231230207;260,130000;1765480231230173;0
58;1765480231230209;-1002,690000;1765480231230207;374,010000;1765480231230209;0
59;1765480231230534;-1556,880000;1765480231230534;374,010000;1765480231230209;0
60;1765480231230539;-1556,880000;1765480231230534;-25,545000;1765480231230539;0
61;1765480231231235;-1432,080000;1765480231231235;-25,545000;1765480231230539;0
62;1765480231231240;-1432,080000;1765480231231235;74,295000;1765480231231240;0
63;1765480231231758;-724,815000;1765480231231758;74,295000;1765480231231240;0
64;1765480231231762;-724,815000;1765480231231758;610,350000;1765480231231762;0
65;1765480231232393;419,835000;1765480231232393;610,350000;1765480231231762;0
66;1765480231232398;419,835000;1765480231232393;941,265000;1765480231232398;0
67;1765480231233206;348,270000;1765480231233206;941,265000;1765480231232398;0
68;1765480231233209;348,270000;1765480231233206;620,685000;1765480231233209;0
69;1765480231233406;-553,410000;1765480231233406;620,685000;1765480231233209;0
70;1765480231233408;-553,410000;1765480231233406;624,390000;1765480231233408;0
71;1765480231234216;407,355000;1765480231234216;624,390000;1765480231233408;0
72;1765480231234220;407,355000;1765480231234216;894,465000;1765480231234220;0
73;1765480231234941;-112,905000;1765480231234941;894,465000;1765480231234220;0
74;1765480231234942;-112,905000;1765480231234941;532,155000;1765480231234942;0
75;1765480231235328;-1089,465000;1765480231235328;532,155000;1765480231234942;0
76;1765480231235330;-1089,465000;1765480231235328;317,070000;1765480231235330;0
77;1765480231235921;-520,650000;1765480231235921;317,070000;1765480231235330;0
78;1765480231235924;-520,650000;1765480231235921;296,010000;1765480231235924;0
79;1765480231236249;1817,400000;1765480231236249;296,010000;1765480231235924;0
80;1765480231236252;1817,400000;1765480231236249;27,300000;1765480231236252;0
81;1765480231237268;2302,950000;1765480231237268;27,300000;1765480231236252;0
82;1765480231237270;2302,950000;1765480231237268;477,555000;1765480231237270;0
83;1765480231237640;2217,345000;1765480231237640;477,555000;1765480231237270;0
84;1765480231237644;2217,345000;1765480231237640;576,030000;1765480231237644;0
85;1765480231238179;2041,455000;1765480231238179;576,030000;1765480231237644;0
86;1765480231238181;2041,455000;1765480231238179;116,220000;1765480231238181;0
87;1765480231238510;2262,000000;1765480231238510;116,220000;1765480231238181;0
88;1765480231238513;2262,000000;1765480231238510;176,475000;1765480231238513;0
89;1765480231239348;1583,790000;1765480231239348;176,475000;1765480231238513;0
90;1765480231239350;1583,790000;1765480231239348;-312,195000;1765480231239350;0
91;1765480231239622;1583,790000;1765480231239348;-178,230000;1765480231239622;0
92;1765480231240495;2010,255000;1765480231240495;-178,230000;1765480231239622;0
93;1765480231240497;2010,255000;1765480231240495;16,185000;1765480231240497;0
94;1765480231240767;2237,235000;1765480231240767;16,185000;1765480231240497;0
95;1765480231240769;2237,235000;1765480231240767;-232,050000;1765480231240769;0
96;1765480231241561;2492,685000;1765480231241561;-232,050000;1765480231240769;0
97;1765480231241564;2492,685000;1765480231241561;88,725000;1765480231241564;0
98;1765480231241823;2079,480000;1765480231241823;88,725000;1765480231241564;0
99;1765480231241826;2079,480000;1765480231241823;-370,305000;1765480231241826;0
100;1765480231242669;3101,475000;1765480231242669;-370,305000;1765480231241826;0
101;1765480231242671;3101,475000;1765480231242669;454,350000;1765480231242671;0
102;1765480231242926;3359,070000;1765480231242926;454,350000;1765480231242671;0
103;1765480231242927;3359,070000;1765480231242926;540,150000;1765480231242927;0
104;1765480231243752;3723,135000;1765480231243752;540,150000;1765480231242927;0
105;1765480231243754;3723,135000;1765480231243752;332,670000;1765480231243754;0
106;1765480231244087;2755,155000;1765480231244087;332,670000;1765480231243754;0
107;1765480231244088;2755,155000;1765480231244087;88,335000;1765480231244088;0
108;1765480231244933;3072,030000;1765480231244933;88,335000;1765480231244088;0
109;1765480231244935;3072,030000;1765480231244933;135,135000;1765480231244935;0
110;1765480231245174;3116,880000;1765480231245174;135,135000;1765480231244935;0
111;1765480231245175;3116,880000;1765480231245174;29,445000;1765480231245175;0
112;1765480231245963;3753,750000;1765480231245963;29,445000;1765480231245175;0
113;1765480231245965;3753,750000;1765480231245963;176,670000;1765480231245965;0
114;1765480231246290;3524,625000;1765480231246290;176,670000;1765480231245965;0
115;1765480231246292;3524,625000;1765480231246290;139,815000;1765480231246292;0
116;1765480231247263;3524,625000;1765480231246290;7,800000;1765480231247263;0
117;1765480231247669;3412,890000;1765480231247669;7,800000;1765480231247263;0
118;1765480231247670;3412,890000;1765480231247669;6,435000;1765480231247670;0
119;1765480231248532;3200,730000;1765480231248532;6,435000;1765480231247670;0
120;1765480231248534;3200,730000;1765480231248532;-359,970000;1765480231248534;0
121;1765480231286630;4760,145000;1765480231286630;-359,970000;1765480231248534;0
122;1765480231286635;4760,145000;1765480231286630;614,835000;1765480231286635;0
123;1765480231286930;3702,270000;1765480231286930;614,835000;1765480231286635;0
124;1765480231286932;3702,270000;1765480231286930;139,425000;1765480231286932;0
125;1765480231287392;3916,965000;1765480231287392;139,425000;1765480231286932;0
126;1765480231287395;3916,965000;1765480231287392;166,335000;1765480231287395;0
127;1765480231287869;4799,145000;1765480231287869;166,335000;1765480231287395;0
128;1765480231287871;4799,145000;1765480231287869;819,195000;1765480231287871;0
129;1765480231288216;3802,110000;1765480231288216;819,195000;1765480231287871;0
130;1765480231288217;3802,110000;1765480231288216;1,950000;1765480231288217;0
131;1765480231288634;3983,655000;1765480231288634;1,950000;1765480231288217;0
132;1765480231288635;3983,655000;1765480231288634;465,270000;1765480231288635;0
133;1765480231289080;3330,795000;1765480231289080;465,270000;1765480231288635;0
134;1765480231289081;3330,795000;1765480231289080;266,565000;1765480231289081;0
135;1765480231290250;2935,335000;1765480231290250;266,565000;1765480231289081;0
136;1765480231290253;2935,335000;1765480231290250;275,535000;1765480231290253;0
137;1765480231290679;4159,545000;1765480231290679;275,535000;1765480231290253;0
138;1765480231290681;4159,545000;1765480231290679;647,205000;1765480231290681;0
139;1765480231291063;4761,900000;1765480231291063;647,205000;1765480231290681;0
140;1765480231291065;4761,900000;1765480231291063;883,935000;1765480231291065;0
141;1765480231291480;4176,510000;1765480231291480;883,935000;1765480231291065;0
142;1765480231291482;4176,510000;1765480231291480;664,560000;1765480231291482;0
143;1765480231292085;3933,735000;1765480231292085;435,825000;1765480231292085;0
144;1765480231292493;3745,755000;1765480231292493;435,825000;1765480231292085;0
145;1765480231292494;3745,755000;1765480231292493;215,670000;1765480231292494;0
146;1765480231293295;3865,290000;1765480231293295;215,670000;1765480231292494;0
147;1765480231293297;3865,290000;1765480231293295;756,795000;1765480231293297;0
148;1765480231293666;1565,655000;1765480231293666;756,795000;1765480231293297;0
149;1765480231293667;1565,655000;1765480231293666;326,430000;1765480231293667;0
150;1765480231294345;1193,790000;1765480231294345;326,430000;1765480231293667;0
151;1765480231294347;1193,790000;1765480231294345;649,935000;1765480231294347;0
152;1765480231294862;1510,860000;1765480231294862;649,935000;1765480231294347;0
153;1765480231294864;1510,860000;1765480231294862;1002,495000;1765480231294864;0
154;1765480231295473;420,030000;1765480231295473;1002,495000;1765480231294864;0
155;1765480231295474;420,030000;1765480231295473;296,010000;1765480231295474;0
156;1765480231295941;1133,535000;1765480231295941;296,010000;1765480231295474;0
157;1765480231295942;1133,535000;1765480231295941;-472,290000;1765480231295942;0
158;1765480231296793;1771,575000;1765480231296793;-472,290000;1765480231295942;0
159;1765480231296795;1771,575000;1765480231296793;249,990000;1765480231296795;0
160;1765480231297189;1329,900000;1765480231297189;249,990000;1765480231296795;0
161;1765480231297190;1329,900000;1765480231297189;-141,570000;1765480231297190;0
162;1765480231297726;1689,090000;1765480231297726;-141,570000;1765480231297190;0
163;1765480231297727;1689,090000;1765480231297726;-328,770000;1765480231297727;0
164;1765480231298521;451,035000;1765480231298521;-328,770000;1765480231297727;0
165;1765480231298522;451,035000;1765480231298521;-365,430000;1765480231298522;0
166;1765480231299506;1114,815000;1765480231299506;-365,430000;1765480231298522;0
167;1765480231299508;1114,815000;1765480231299506;48,945000;1765480231299508;0
168;1765480231348643;1134,510000;1765480231348643;48,945000;1765480231299508;0
169;1765480231348649;1134,510000;1765480231348643;-105,105000;1765480231348649;0
170;1765480231348671;1887,795000;1765480231348671;-105,105000;1765480231348649;0
171;1765480231348673;1887,795000;1765480231348671;637,845000;1765480231348673;0
172;1765480231350995;1230,450000;1765480231350995;637,845000;1765480231348673;0
173;1765480231351000;1230,450000;1765480231350995;78,780000;1765480231351000;0
174;1765480231351469;1572,675000;1765480231351469;78,780000;1765480231351000;0
175;1765480231351472;1572,675000;1765480231351469;-226,980000;1765480231351472;0
176;1765480231351547;1181,895000;1765480231351547;-226,980000;1765480231351472;0
177;1765480231351601;1181,895000;1765480231351547;-132,990000;1765480231351601;0
178;1765480231351640;489,255000;1765480231351640;-132,990000;1765480231351601;0
179;1765480231351642;489,255000;1765480231351640;-201,435000;1765480231351642;0
180;1765480231352131;1110,720000;1765480231352131;-201,435000;1765480231351642;0
181;1765480231352133;1110,720000;1765480231352131;-41,535000;1765480231352133;0
182;1765480231352790;1321,710000;1765480231352790;-41,535000;1765480231352133;0
183;1765480231352794;1321,710000;1765480231352790;361,920000;1765480231352794;0
184;1765480231353075;1680,315000;1765480231353075;361,920000;1765480231352794;0
185;1765480231353079;1680,315000;1765480231353075;752,115000;1765480231353079;0
186;1765480231353494;865,215000;1765480231353494;752,115000;1765480231353079;0
187;1765480231353498;865,215000;1765480231353494;51,870000;1765480231353498;0
188;1765480231353572;2111,265000;1765480231353572;51,870000;1765480231353498;0
189;1765480231353575;2111,265000;1765480231353572;634,530000;1765480231353575;0
190;1765480231354038;2074,020000;1765480231354038;634,530000;1765480231353575;0
191;1765480231354042;2074,020000;1765480231354038;550,095000;1765480231354042;0
192;1765480231354058;888,030000;1765480231354058;550,095000;1765480231354042;0
193;1765480231354060;888,030000;1765480231354058;282,360000;1765480231354060;0
194;1765480231354226;1182,285000;1765480231354226;282,360000;1765480231354060;0
195;1765480231354229;1182,285000;1765480231354226;226,395000;1765480231354229;0
196;1765480231354280;669,630000;1765480231354280;226,395000;1765480231354229;0
197;1765480231354282;669,630000;1765480231354280;86,775000;1765480231354282;0
198;1765480231354787;732,225000;1765480231354787;86,775000;1765480231354282;0
199;1765480231354790;732,225000;1765480231354787;46,605000;1765480231354790;0
200;1765480231355419;925,470000;1765480231355419;46,605000;1765480231354790;0
201;1765480231355423;925,470000;1765480231355419;522,210000;1765480231355423;0
202;1765480231355902;825,240000;1765480231355902;522,210000;1765480231355423;0
203;1765480231355903;825,240000;1765480231355902;500,955000;1765480231355903;0
204;1765480231356375;-2961,855000;1765480231356375;500,955000;1765480231355903;0
205;1765480231356406;-2961,855000;1765480231356375;-587,145000;1765480231356406;0
206;1765480231357565;-2487,810000;1765480231357565;-587,145000;1765480231356406;0
207;1765480231357566;-2487,810000;1765480231357565;-228,930000;1765480231357566;0
208;1765480231357799;-2543,385000;1765480231357799;-228,930000;1765480231357566;0
209;1765480231357801;-2543,385000;1765480231357799;-390,195000;1765480231357801;0
210;1765480231357974;-1708,785000;1765480231357974;-390,195000;1765480231357801;0
211;1765480231357975;-1708,785000;1765480231357974;-16,185000;1765480231357975;0
212;1765480231358225;-2730,585000;1765480231358225;-16,185000;1765480231357975;0
213;1765480231358226;-2730,585000;1765480231358225;-121,290000;1765480231358226;0
214;1765480231359050;-1486,290000;1765480231359050;-121,290000;1765480231358226;0
215;1765480231359051;-1486,290000;1765480231359050;345,150000;1765480231359051;0
216;1765480231359291;-1083,615000;1765480231359291;345,150000;1765480231359051;0
217;1765480231359292;-1083,615000;1765480231359291;267,345000;1765480231359292;0
218;1765480231360627;-2949,375000;1765480231360627;267,345000;1765480231359292;0
219;1765480231360628;-2949,375000;1765480231360627;-540,930000;1765480231360628;0
220;1765480231360713;-2168,205000;1765480231360713;-540,930000;1765480231360628;0
221;1765480231360714;-2168,205000;1765480231360713;150,930000;1765480231360714;0
222;1765480231360953;-2168,205000;1765480231360713;-39,195000;1765480231360953;0
223;1765480231361617;-1874,145000;1765480231361617;-39,195000;1765480231360953;0
224;1765480231361618;-1874,145000;1765480231361617;-358,410000;1765480231361618;0
225;1765480231362115;-1861,860000;1765480231362115;-358,410000;1765480231361618;0
226;1765480231362116;-1861,860000;1765480231362115;-16,770000;1765480231362116;0
227;1765480231362841;-2851,875000;1765480231362841;-16,770000;1765480231362116;0
228;1765480231362842;-2851,875000;1765480231362841;-425,490000;1765480231362842;0
229;1765480231363257;-2425,410000;1765480231363257;-425,490000;1765480231362842;0
230;1765480231363258;-2425,410000;1765480231363257;-235,170000;1765480231363258;0
231;1765480231364111;-1464,255000;1765480231364111;-235,170000;1765480231363258;0
232;1765480231364113;-1464,255000;1765480231364111;311,805000;1765480231364113;0
233;1765480231364334;-2477,865000;1765480231364334;311,805000;1765480231364113;0
234;1765480231364335;-2477,865000;1765480231364334;-183,105000;1765480231364335;0
235;1765480231365028;-2310,945000;1765480231365028;-183,105000;1765480231364335;0
236;1765480231365029;-2310,945000;1765480231365028;-147,810000;1765480231365029;0
237;1765480231365588;-2945,865000;1765480231365588;-147,810000;1765480231365029;0
238;1765480231365589;-2945,865000;1765480231365588;-542,490000;1765480231365589;0
239;1765480231366240;-1614,210000;1765480231366240;-542,490000;1765480231365589;0
240;1765480231366241;-1614,210000;1765480231366240;195,000000;1765480231366241;0
241;1765480231366818;-2703,090000;1765480231366818;195,000000;1765480231366241;0
242;1765480231366819;-2703,090000;1765480231366818;-192,465000;1765480231366819;0
243;1765480231367350;-590,265000;1765480231367350;-192,465000;1765480231366819;0
244;1765480231367351;-590,265000;1765480231367350;713,505000;1765480231367351;0
245;1765480231368296;-1917,435000;1765480231368296;713,505000;1765480231367351;0
246;1765480231368297;-1917,435000;1765480231368296;140,400000;1765480231368297;0
247;1765480231468022;-1456,065000;1765480231468022;140,400000;1765480231368297;0
248;1765480231468028;-1456,065000;1765480231468022;435,825000;1765480231468028;0
249;1765480231468459;-2273,505000;1765480231468459;435,825000;1765480231468028;0
250;1765480231468464;-2273,505000;1765480231468459;-105,300000;1765480231468464;0
251;1765480231468935;-1096,485000;1765480231468935;-105,300000;1765480231468464;0
252;1765480231468939;-1096,485000;1765480231468935;544,830000;1765480231468939;0
253;1765480231469541;-1096,485000;1765480231468935;562,575000;1765480231469541;0
254;1765480231469580;-1529,970000;1765480231469580;562,575000;1765480231469541;0
255;1765480231469582;-1529,970000;1765480231469580;-8,385000;1765480231469582;0
256;1765480231469975;-1963,650000;1765480231469975;-8,385000;1765480231469582;0
257;1765480231469978;-1963,650000;1765480231469975;-100,815000;1765480231469978;0
258;1765480231470460;-1175,265000;1765480231470460;-100,815000;1765480231469978;0
259;1765480231470463;-1175,265000;1765480231470460;216,060000;1765480231470463;0
260;1765480231471027;-1106,430000;1765480231471027;216,060000;1765480231470463;0
261;1765480231471030;-1106,430000;1765480231471027;520,845000;1765480231471030;0
262;1765480231471458;-1966,575000;1765480231471458;520,845000;1765480231471030;0
263;1765480231471461;-1966,575000;1765480231471458;376,350000;1765480231471461;0
264;1765480231472358;-1567,410000;1765480231472358;376,350000;1765480231471461;0
265;1765480231472361;-1567,410000;1765480231472358;229,710000;1765480231472361;0
266;1765480231472588;-1155,375000;1765480231472588;229,710000;1765480231472361;0
267;1765480231472591;-1155,375000;1765480231472588;584,805000;1765480231472591;0
268;1765480231474102;-1469,520000;1765480231474102;584,805000;1765480231472591;0
269;1765480231474105;-1469,520000;1765480231474102;599,235000;1765480231474105;0
270;1765480231474652;-2015,520000;1765480231474652;599,235000;1765480231474105;0
271;1765480231474655;-2015,520000;1765480231474652;115,635000;1765480231474655;0
272;1765480231475040;-1536,210000;1765480231475040;115,635000;1765480231474655;0
273;1765480231475042;-1536,210000;1765480231475040;644,670000;1765480231475042;0
274;1765480231475053;-1401,075000;1765480231475053;644,670000;1765480231475042;0
275;1765480231475054;-1401,075000;1765480231475053;282,750000;1765480231475054;0
276;1765480231475383;-1022,385000;1765480231475383;282,750000;1765480231475054;0
277;1765480231475385;-1022,385000;1765480231475383;234,390000;1765480231475385;0
278;1765480231475642;-2175,810000;1765480231475642;234,390000;1765480231475385;0
279;1765480231475644;-2175,810000;1765480231475642;-38,025000;1765480231475644;0
280;1765480231476116;3815,565000;1765480231476116;-38,025000;1765480231475644;0
281;1765480231476118;3815,565000;1765480231476116;-133,185000;1765480231476118;0
282;1765480231476845;3151,005000;1765480231476845;-133,185000;1765480231476118;0
283;1765480231476847;3151,005000;1765480231476845;-182,910000;1765480231476847;0
284;1765480231477243;3876,990000;1765480231477243;-182,910000;1765480231476847;0
285;1765480231477244;3876,990000;1765480231477243;71,175000;1765480231477244;0
286;1765480231477902;3394,560000;1765480231477902;71,175000;1765480231477244;0
287;1765480231477904;3394,560000;1765480231477902;-89,505000;1765480231477904;0
288;1765480231478402;2762,370000;1765480231478402;-89,505000;1765480231477904;0
289;1765480231478404;2762,370000;1765480231478402;-562,185000;1765480231478404;0
290;1765480231478829;3380,910000;1765480231478829;-562,185000;1765480231478404;0
291;1765480231478832;3380,910000;1765480231478829;-208,065000;1765480231478832;0
292;1765480231479345;3380,910000;1765480231478829;82,875000;1765480231479345;0
293;1765480231479978;3468,270000;1765480231479978;82,875000;1765480231479345;0
294;1765480231479979;3468,270000;1765480231479978;18,135000;1765480231479979;0
295;1765480231480448;2961,855000;1765480231480448;-406,575000;1765480231480448;0
296;1765480231481021;2678,910000;1765480231481021;-406,575000;1765480231480448;0
297;1765480231481023;2678,910000;1765480231481021;-388,635000;1765480231481023;0
298;1765480231481791;3930,030000;1765480231481791;-388,635000;1765480231481023;0
299;1765480231481793;3930,030000;1765480231481791;544,830000;1765480231481793;0
300;1765480231482206;3983,655000;1765480231482206;544,830000;1765480231481793;0
301;1765480231482207;3983,655000;1765480231482206;-8,190000;1765480231482207;0
302;1765480231482833;3078,270000;1765480231482833;-8,190000;1765480231482207;0
303;1765480231482835;3078,270000;1765480231482833;-25,350000;1765480231482835;0
304;1765480231483311;3108,495000;1765480231483311;-25,350000;1765480231482835;0
305;1765480231483313;3108,495000;1765480231483311;610,350000;1765480231483313;0
306;1765480231483885;2209,350000;1765480231483885;610,350000;1765480231483313;0
307;1765480231483887;2209,350000;1765480231483885;-66,690000;1765480231483887;0
308;1765480231484466;2454,270000;1765480231484466;-66,690000;1765480231483887;0
309;1765480231484468;2454,270000;1765480231484466;-206,115000;1765480231484468;0
310;1765480231484911;2834,520000;1765480231484911;-151,710000;1765480231484911;0
311;1765480231485584;2905,890000;1765480231485584;-151,710000;1765480231484911;0
312;1765480231485585;2905,890000;1765480231485584;208,845000;1765480231485585;0
313;1765480231486168;1732,965000;1765480231486168;208,845000;1765480231485585;0
314;1765480231486169;1732,965000;1765480231486168;-45,630000;1765480231486169;0
315;1765480231486891;1732,965000;1765480231486168;440,700000;1765480231486891;0
316;1765480231487275;2612,415000;1765480231487275;440,700000;1765480231486891;0
317;1765480231487276;2612,415000;1765480231487275;124,215000;1765480231487276;0
318;1765480231488252;2212,275000;1765480231488252;124,215000;1765480231487276;0
319;1765480231488253;2212,275000;1765480231488252;-91,845000;1765480231488253;0
320;1765480231527341;1765,530000;1765480231527341;-91,845000;1765480231488253;0
321;1765480231527346;1765,530000;1765480231527341;195,585000;1765480231527346;0
322;1765480231527955;2561,520000;1765480231527955;195,585000;1765480231527346;0
323;1765480231527960;2561,520000;1765480231527955;440,895000;1765480231527960;0
324;1765480231528350;2137,590000;1765480231528350;440,895000;1765480231527960;0
325;1765480231528355;2137,590000;1765480231528350;81,510000;1765480231528355;0
326;1765480231528788;1917,630000;1765480231528788;81,510000;1765480231528355;0
327;1765480231528792;1917,630000;1765480231528788;-158,730000;1765480231528792;0
328;1765480231529029;1890,525000;1765480231529029;-158,730000;1765480231528792;0
329;1765480231529034;1890,525000;1765480231529029;178,815000;1765480231529034;0
330;1765480231529501;2341,560000;1765480231529501;178,815000;1765480231529034;0
331;1765480231529504;2341,560000;1765480231529501;391,950000;1765480231529504;0
332;1765480231529893;2016,495000;1765480231529893;391,950000;1765480231529504;0
333;1765480231529897;2016,495000;1765480231529893;981,630000;1765480231529897;0
334;1765480231530535;861,315000;1765480231530535;981,630000;1765480231529897;0
335;1765480231530539;861,315000;1765480231530535;82,290000;1765480231530539;0
336;1765480231531186;780,780000;1765480231531186;82,290000;1765480231530539;0
337;1765480231531189;780,780000;1765480231531186;235,170000;1765480231531189;0
338;1765480231531386;883,935000;1765480231531386;235,170000;1765480231531189;0
339;1765480231531442;883,935000;1765480231531386;251,550000;1765480231531442;0
340;1765480231532252;1894,815000;1765480231532252;251,550000;1765480231531442;0
341;1765480231532255;1894,815000;1765480231532252;699,270000;1765480231532255;0
342;1765480231532521;519,675000;1765480231532521;699,270000;1765480231532255;0
343;1765480231532523;519,675000;1765480231532521;170,235000;1765480231532523;0
344;1765480231532836;894,465000;1765480231532836;170,235000;1765480231532523;0
345;1765480231532839;894,465000;1765480231532836;602,550000;1765480231532839;0
346;1765480231533993;1384,305000;1765480231533993;602,550000;1765480231532839;0
347;1765480231534045;1384,305000;1765480231533993;643,500000;1765480231534045;0
348;1765480231534327;1893,645000;1765480231534327;643,500000;1765480231534045;0
349;1765480231534329;1893,645000;1765480231534327;1014,390000;1765480231534329;0
350;1765480231534723;-17,745000;1765480231534723;1014,390000;1765480231534329;0
351;1765480231534725;-17,745000;1765480231534723;85,215000;1765480231534725;0
352;1765480231535075;-26,715000;1765480231535075;85,215000;1765480231534725;0
353;1765480231535077;-26,715000;1765480231535075;44,070000;1765480231535077;0
354;1765480231535638;1489,800000;1765480231535638;44,070000;1765480231535077;0
355;1765480231535639;1489,800000;1765480231535638;750,555000;1765480231535639;0
356;1765480231535979;-680,745000;1765480231535979;750,555000;1765480231535639;0
357;1765480231535980;-680,745000;1765480231535979;103,545000;1765480231535980;0
358;1765480231536831;-974,610000;1765480231536831;103,545000;1765480231535980;0
359;1765480231536832;-974,610000;1765480231536831;305,760000;1765480231536832;0
360;1765480231537218;-1328,145000;1765480231537218;305,760000;1765480231536832;0
361;1765480231537220;-1328,145000;1765480231537218;-238,290000;1765480231537220;0
362;1765480231537780;-2136,030000;1765480231537780;-238,290000;1765480231537220;0
363;1765480231537781;-2136,030000;1765480231537780;-411,450000;1765480231537781;0
364;1765480231538227;-2905,890000;1765480231538227;-411,450000;1765480231537781;0
365;1765480231538228;-2905,890000;1765480231538227;-375,570000;1765480231538228;0
366;1765480231538961;-2905,890000;1765480231538227;-6239,220000;1765480231538961;0
367;1765480231539315;-2204,280000;1765480231539315;-109,200000;1765480231539315;0
368;1765480231539925;-2204,280000;1765480231539315;72,735000;1765480231539925;0
369;1765480231540636;-1815,255000;1765480231540636;72,735000;1765480231539925;0
370;1765480231540638;-1815,255000;1765480231540636;-53,235000;1765480231540638;0
371;1765480231541029;-2953,665000;1765480231541029;-53,235000;1765480231540638;0
372;1765480231541030;-2953,665000;1765480231541029;-404,625000;1765480231541030;0
373;1765480231541669;-2722,980000;1765480231541669;-404,625000;1765480231541030;0
374;1765480231541670;-2722,980000;1765480231541669;-572,130000;1765480231541670;0
375;1765480231542152;-1014,195000;1765480231542152;-572,130000;1765480231541670;0
376;1765480231542154;-1014,195000;1765480231542152;384,930000;1765480231542154;0
377;1765480231542808;-1701,570000;1765480231542808;384,930000;1765480231542154;0
378;1765480231542810;-1701,570000;1765480231542808;163,995000;1765480231542810;0
379;1765480231543256;-2851,875000;1765480231543256;163,995000;1765480231542810;0
380;1765480231543258;-2851,875000;1765480231543256;-327,990000;1765480231543258;0
381;1765480231543875;-2075,970000;1765480231543875;-327,990000;1765480231543258;0
382;1765480231543876;-2075,970000;1765480231543875;331,500000;1765480231543876;0
383;1765480231544436;-1670,175000;1765480231544436;331,500000;1765480231543876;0
384;1765480231544438;-1670,175000;1765480231544436;306,540000;1765480231544438;0
385;1765480231545086;-2329,275000;1765480231545086;306,540000;1765480231544438;0
386;1765480231545088;-2329,275000;1765480231545086;60,255000;1765480231545088;0
387;1765480231545600;-2096,835000;1765480231545600;60,255000;1765480231545088;0
388;1765480231545602;-2096,835000;1765480231545600;141,765000;1765480231545602;0
389;1765480231546296;-2425,800000;1765480231546296;141,765000;1765480231545602;0
390;1765480231546297;-2425,800000;1765480231546296;-92,625000;1765480231546297;0
391;1765480231547440;-3072,225000;1765480231547440;-92,625000;1765480231546297;0
392;1765480231547441;-3072,225000;1765480231547440;-323,505000;1765480231547441;0
393;1765480231547582;-2949,375000;1765480231547582;-323,505000;1765480231547441;0
394;1765480231547584;-2949,375000;1765480231547582;-465,270000;1765480231547584;0
395;1765480231548018;-1265,160000;1765480231548018;-465,270000;1765480231547584;0
396;1765480231548021;-1265,160000;1765480231548018;591,630000;1765480231548021;0
397;1765480231548583;-2428,335000;1765480231548583;591,630000;1765480231548021;0
398;1765480231548585;-2428,335000;1765480231548583;-61,620000;1765480231548585;0
399;1765480231586776;-1695,720000;1765480231586776;-61,620000;1765480231548585;0
400;1765480231586780;-1695,720000;1765480231586776;424,905000;1765480231586780;0
401;1765480231587151;-1909,830000;1765480231587151;424,905000;1765480231586780;0
402;1765480231587154;-1909,830000;1765480231587151;226,005000;1765480231587154;0
403;1765480231587408;-2017,665000;1765480231587408;226,005000;1765480231587154;0
404;1765480231587411;-2017,665000;1765480231587408;122,850000;1765480231587411;0
405;1765480231587984;-825,435000;1765480231587984;122,850000;1765480231587411;0
406;1765480231587987;-825,435000;1765480231587984;850,590000;1765480231587987;0
407;1765480231588486;-2803,905000;1765480231588486;850,590000;1765480231587987;0
408;1765480231588489;-2803,905000;1765480231588486;0,000000;1765480231588489;0
409;1765480231588876;-1568,385000;1765480231588876;0,000000;1765480231588489;0
410;1765480231588879;-1568,385000;1765480231588876;371,085000;1765480231588879;0
411;1765480231589281;-2567,760000;1765480231589281;371,085000;1765480231588879;0
412;1765480231589283;-2567,760000;1765480231589281;155,415000;1765480231589283;0
413;1765480231590297;-1814,865000;1765480231590297;155,415000;1765480231589283;0
414;1765480231590298;-1814,865000;1765480231590297;110,175000;1765480231590298;0
415;1765480231590980;-2296,905000;1765480231590980;110,175000;1765480231590298;0
416;1765480231590981;-2296,905000;1765480231590980;569,595000;1765480231590981;0
417;1765480231591436;-2431,845000;1765480231591436;569,595000;1765480231590981;0
418;1765480231591437;-2431,845000;1765480231591436;390,000000;1765480231591437;0
419;1765480231592057;-1751,880000;1765480231592057;390,000000;1765480231591437;0
420;1765480231592058;-1751,880000;1765480231592057;802,815000;1765480231592058;0
421;1765480231592533;-1667,835000;1765480231592533;802,815000;1765480231592058;0
422;1765480231592535;-1667,835000;1765480231592533;695,565000;1765480231592535;0
423;1765480231593168;-1899,105000;1765480231593168;695,565000;1765480231592535;0
424;1765480231593170;-1899,105000;1765480231593168;287,430000;1765480231593170;0
425;1765480231593862;-2725,320000;1765480231593862;287,430000;1765480231593170;0
426;1765480231593864;-2725,320000;1765480231593862;-17,745000;1765480231593864;0
427;1765480231594300;-2092,545000;1765480231594300;-17,745000;1765480231593864;0
428;1765480231594306;-2092,545000;1765480231594300;697,710000;1765480231594306;0
429;1765480231594933;-1189,890000;1765480231594933;697,710000;1765480231594306;0
430;1765480231594934;-1189,890000;1765480231594933;568,230000;1765480231594934;0
431;1765480231595301;-1872,975000;1765480231595301;568,230000;1765480231594934;0
432;1765480231595302;-1872,975000;1765480231595301;136,110000;1765480231595302;0
433;1765480231595954;-1654,965000;1765480231595954;136,110000;1765480231595302;0
434;1765480231595955;-1654,965000;1765480231595954;52,455000;1765480231595955;0
435;1765480231596784;-2121,990000;1765480231596784;-277,875000;1765480231596784;0
436;1765480231597148;-714,675000;1765480231597148;-277,875000;1765480231596784;0
437;1765480231597150;-714,675000;1765480231597148;227,760000;1765480231597150;0
438;1765480231597919;-1606,410000;1765480231597919;227,760000;1765480231597150;0
439;1765480231597921;-1606,410000;1765480231597919;-190,710000;1765480231597921;0
440;1765480231598339;-1480,830000;1765480231598339;-190,710000;1765480231597921;0
441;1765480231598340;-1480,830000;1765480231598339;-108,420000;1765480231598340;0
442;1765480231598813;-985,140000;1765480231598813;-108,420000;1765480231598340;0
443;1765480231598815;-985,140000;1765480231598813;-36,660000;1765480231598815;0
444;1765480231599414;-1206,465000;1765480231599414;-36,660000;1765480231598815;0
445;1765480231599416;-1206,465000;1765480231599414;-59,865000;1765480231599416;0
446;1765480231599939;-790,530000;1765480231599939;-59,865000;1765480231599416;0
447;1765480231599940;-790,530000;1765480231599939;65,910000;1765480231599940;0
448;1765480231600496;-1243,125000;1765480231600496;65,910000;1765480231599940;0
449;1765480231600498;-1243,125000;1765480231600496;-71,760000;1765480231600498;0
450;1765480231601075;-32,370000;1765480231601075;-71,760000;1765480231600498;0
451;1765480231601077;-32,370000;1765480231601075;483,015000;1765480231601077;0
452;1765480231601521;-644,280000;1765480231601521;483,015000;1765480231601077;0
453;1765480231601522;-644,280000;1765480231601521;-33,540000;1765480231601522;0
454;1765480231602268;-1320,930000;1765480231602268;-33,540000;1765480231601522;0
455;1765480231602269;-1320,930000;1765480231602268;-169,065000;1765480231602269;0
456;1765480231602637;-1394,055000;1765480231602637;-169,065000;1765480231602269;0
457;1765480231602639;-1394,055000;1765480231602637;-141,570000;1765480231602639;0
458;1765480231603334;-1394,055000;1765480231602637;361,140000;1765480231603334;0
459;1765480231603888;-495,300000;1765480231603888;361,140000;1765480231603334;0
460;1765480231603891;-495,300000;1765480231603888;215,280000;1765480231603891;0
461;1765480231604450;-765,570000;1765480231604450;215,280000;1765480231603891;0
462;1765480231604452;-765,570000;1765480231604450;13,260000;1765480231604452;0
463;1765480231604995;-765,570000;1765480231604450;596,895000;1765480231604995;0
464;1765480231605595;-765,570000;1765480231604450;113,880000;1765480231605595;0
465;1765480231606168;-806,130000;1765480231606168;113,880000;1765480231605595;0
466;1765480231606169;-806,130000;1765480231606168;63,375000;1765480231606169;0
467;1765480231607211;-231,270000;1765480231607211;63,375000;1765480231606169;0
468;1765480231607212;-231,270000;1765480231607211;347,295000;1765480231607212;0
469;1765480231607292;-545,025000;1765480231607292;347,295000;1765480231607212;0
470;1765480231607293;-545,025000;1765480231607292;-182,520000;1765480231607293;0
471;1765480231647480;-757,770000;1765480231647480;-182,520000;1765480231607293;0
472;1765480231647485;-757,770000;1765480231647480;-276,705000;1765480231647485;0
473;1765480231648274;288,990000;1765480231648274;-276,705000;1765480231647485;0
474;1765480231648280;288,990000;1765480231648274;377,910000;1765480231648280;0
475;1765480231649062;463,710000;1765480231649062;377,910000;1765480231648280;0
476;1765480231649066;463,710000;1765480231649062;555,555000;1765480231649066;0
477;1765480231649978;234,975000;1765480231649978;555,555000;1765480231649066;0
478;1765480231649982;234,975000;1765480231649978;39,390000;1765480231649982;0
479;1765480231650288;420,615000;1765480231650288;39,390000;1765480231649982;0
480;1765480231650292;420,615000;1765480231650288;597,870000;1765480231650292;0
481;1765480231650502;406,575000;1765480231650502;597,870000;1765480231650292;0
482;1765480231650504;406,575000;1765480231650502;117,975000;1765480231650504;0
483;1765480231650822;525,135000;1765480231650822;117,975000;1765480231650504;0
484;1765480231650829;525,135000;1765480231650822;495,105000;1765480231650829;0
485;1765480231651086;532,545000;1765480231651086;495,105000;1765480231650829;0
486;1765480231651089;532,545000;1765480231651086;619,710000;1765480231651089;0
487;1765480231651364;857,805000;1765480231651364;619,710000;1765480231651089;0
488;1765480231651368;857,805000;1765480231651364;281,775000;1765480231651368;0
489;1765480231651788;260,130000;1765480231651788;281,775000;1765480231651368;0
490;1765480231651790;260,130000;1765480231651788;298,935000;1765480231651790;0
491;1765480231652146;1394,055000;1765480231652146;298,935000;1765480231651790;0
492;1765480231652148;1394,055000;1765480231652146;835,575000;1765480231652148;0
493;1765480231652309;1906,125000;1765480231652309;835,575000;1765480231652148;0
494;1765480231652312;1906,125000;1765480231652309;859,950000;1765480231652312;0
495;1765480231652786;614,640000;1765480231652786;859,950000;1765480231652312;0
496;1765480231652788;614,640000;1765480231652786;322,335000;1765480231652788;0
497;1765480231653348;1695,135000;1765480231653348;322,335000;1765480231652788;0
498;1765480231653350;1695,135000;1765480231653348;639,990000;1765480231653350;0
499;1765480231653967;2213,445000;1765480231653967;639,990000;1765480231653350;0
500;1765480231653969;2213,445000;1765480231653967;596,310000;1765480231653969;0
501;1765480231654361;1798,095000;1765480231654361;596,310000;1765480231653969;0
502;1765480231654363;1798,095000;1765480231654361;442,455000;1765480231654363;0
503;1765480231654845;1033,890000;1765480231654845;442,455000;1765480231654363;0
504;1765480231654847;1033,890000;1765480231654845;362,700000;1765480231654847;0
505;1765480231655470;2598,180000;1765480231655470;362,700000;1765480231654847;0
506;1765480231655472;2598,180000;1765480231655470;644,475000;1765480231655472;0
507;1765480231655917;4191,135000;1765480231655917;644,475000;1765480231655472;0
508;1765480231655919;4191,135000;1765480231655917;282,555000;1765480231655919;0
509;1765480231656913;4510,935000;1765480231656913;282,555000;1765480231655919;0
510;1765480231656914;4510,935000;1765480231656913;372,060000;1765480231656914;0
511;1765480231657182;4598,295000;1765480231657182;372,060000;1765480231656914;0
512;1765480231657183;4598,295000;1765480231657182;397,215000;1765480231657183;0
513;1765480231657817;4544,475000;1765480231657817;397,215000;1765480231657183;0
514;1765480231657819;4544,475000;1765480231657817;369,135000;1765480231657819;0
515;1765480231658249;3102,840000;1765480231658249;369,135000;1765480231657819;0
516;1765480231658251;3102,840000;1765480231658249;-153,855000;1765480231658251;0
517;1765480231658937;3804,255000;1765480231658937;-153,855000;1765480231658251;0
518;1765480231658938;3804,255000;1765480231658937;-72,345000;1765480231658938;0
519;1765480231659308;3933,345000;1765480231659308;-72,345000;1765480231658938;0
520;1765480231659310;3933,345000;1765480231659308;108,810000;1765480231659310;0
521;1765480231659860;3944,655000;1765480231659860;108,810000;1765480231659310;0
522;1765480231659861;3944,655000;1765480231659860;244,335000;1765480231659861;0
523;1765480231660557;3805,620000;1765480231660557;244,335000;1765480231659861;0
524;1765480231660558;3805,620000;1765480231660557;24,375000;1765480231660558;0
525;1765480231660978;4011,345000;1765480231660978;24,375000;1765480231660558;0
526;1765480231660979;4011,345000;1765480231660978;90,675000;1765480231660979;0
527;1765480231661696;4950,465000;1765480231661696;90,675000;1765480231660979;0
528;1765480231661697;4950,465000;1765480231661696;492,375000;1765480231661697;0
529;1765480231662109;3894,735000;1765480231662109;492,375000;1765480231661697;0
530;1765480231662111;3894,735000;1765480231662109;-258,180000;1765480231662111;0
531;1765480231662725;3749,265000;1765480231662725;-258,180000;1765480231662111;0
532;1765480231662726;3749,265000;1765480231662725;-183,105000;1765480231662726;0
533;1765480231663323;3567,135000;1765480231663323;-183,105000;1765480231662726;0
534;1765480231663325;3567,135000;1765480231663323;-27,105000;1765480231663325;0
535;1765480231663841;5326,815000;1765480231663841;-27,105000;1765480231663325;0
536;1765480231663842;5326,815000;1765480231663841;705,900000;1765480231663842;0
537;1765480231664414;5326,815000;1765480231663841;272,805000;1765480231664414;0
538;1765480231665201;4260,165000;1765480231665201;272,805000;1765480231664414;0
539;1765480231665203;4260,165000;1765480231665201;182,715000;1765480231665203;0
540;1765480231665651;3638,895000;1765480231665651;182,715000;1765480231665203;0
541;1765480231665653;3638,895000;1765480231665651;21,450000;1765480231665653;0
542;1765480231666298;-3138,330000;1765480231666298;21,450000;1765480231665653;0
543;1765480231666299;-3138,330000;1765480231666298;-476,385000;1765480231666299;0
544;1765480231667524;-1592,175000;1765480231667524;-476,385000;1765480231666299;0
545;1765480231667525;-1592,175000;1765480231667524;-10,725000;1765480231667525;0
546;1765480231706888;-1534,650000;1765480231706888;-10,725000;1765480231667525;0
547;1765480231706893;-1534,650000;1765480231706888;256,035000;1765480231706893;0
548;1765480231707666;-580,905000;1765480231707666;256,035000;1765480231706893;0
549;1765480231707671;-580,905000;1765480231707666;524,940000;1765480231707671;0
550;1765480231708080;-1077,375000;1765480231708080;524,940000;1765480231707671;0
551;1765480231708085;-1077,375000;1765480231708080;515,775000;1765480231708085;0
552;1765480231708393;-110,370000;1765480231708393;515,775000;1765480231708085;0
553;1765480231708396;-110,370000;1765480231708393;687,960000;1765480231708396;0
554;1765480231708778;-1734,330000;1765480231708778;687,960000;1765480231708396;0
555;1765480231708780;-1734,330000;1765480231708778;-19,695000;1765480231708780;0
556;1765480231708992;-1276,275000;1765480231708992;-19,695000;1765480231708780;0
557;1765480231708996;-1276,275000;1765480231708992;166,920000;1765480231708996;0
558;1765480231709780;512,460000;1765480231709780;166,920000;1765480231708996;0
559;1765480231709783;512,460000;1765480231709780;1040,325000;1765480231709783;0
560;1765480231710186;-67,080000;1765480231710186;1040,325000;1765480231709783;0
561;1765480231710189;-67,080000;1765480231710186;631,020000;1765480231710189;0
562;1765480231710713;-144,690000;1765480231710713;631,020000;1765480231710189;0
563;1765480231710714;-144,690000;1765480231710713;155,805000;1765480231710714;0
564;1765480231711104;-529,425000;1765480231711104;155,805000;1765480231710714;0
565;1765480231711107;-529,425000;1765480231711104;666,510000;1765480231711107;0
566;1765480231712880;-797,745000;1765480231712880;666,510000;1765480231711107;0
567;1765480231712882;-797,745000;1765480231712880;85,800000;1765480231712882;0
568;1765480231713073;-809,445000;1765480231713073;85,800000;1765480231712882;0
569;1765480231713076;-809,445000;1765480231713073;-116,025000;1765480231713076;0
570;1765480231713378;-10,920000;1765480231713378;-116,025000;1765480231713076;0
571;1765480231713381;-10,920000;1765480231713378;374,205000;1765480231713381;0
572;1765480231713775;-712,335000;1765480231713775;374,205000;1765480231713381;0
573;1765480231713777;-712,335000;1765480231713775;434,655000;1765480231713777;0
574;1765480231714092;-670,020000;1765480231714092;434,655000;1765480231713777;0
575;1765480231714095;-670,020000;1765480231714092;405,600000;1765480231714095;0
576;1765480231714743;-82,290000;1765480231714743;405,600000;1765480231714095;0
577;1765480231714747;-82,290000;1765480231714743;237,315000;1765480231714747;0
578;1765480231715448;-345,150000;1765480231715448;237,315000;1765480231714747;0
579;1765480231715454;-345,150000;1765480231715448;298,935000;1765480231715454;0
580;1765480231715688;467,415000;1765480231715688;298,935000;1765480231715454;0
581;1765480231715689;467,415000;1765480231715688;728,910000;1765480231715689;0
582;1765480231716205;-205,725000;1765480231716205;728,910000;1765480231715689;0
583;1765480231716208;-205,725000;1765480231716205;-86,970000;1765480231716208;0
584;1765480231717045;370,695000;1765480231717045;-86,970000;1765480231716208;0
585;1765480231717049;370,695000;1765480231717045;233,610000;1765480231717049;0
586;1765480231717552;370,695000;1765480231717045;-6239,220000;1765480231717552;0
587;1765480231717934;347,295000;1765480231717934;-6239,220000;1765480231717552;0
588;1765480231717936;347,295000;1765480231717934;567,450000;1765480231717936;0
589;1765480231718574;-250,185000;1765480231718574;567,450000;1765480231717936;0
590;1765480231718577;-250,185000;1765480231718574;-238,875000;1765480231718577;0
591;1765480231719011;-1048,515000;1765480231719011;-238,875000;1765480231718577;0
592;1765480231719013;-1048,515000;1765480231719011;-257,985000;1765480231719013;0
593;1765480231719511;242,385000;1765480231719511;-257,985000;1765480231719013;0
594;1765480231719512;242,385000;1765480231719511;101,790000;1765480231719512;0
595;1765480231719964;-322,530000;1765480231719964;101,790000;1765480231719512;0
596;1765480231719966;-322,530000;1765480231719964;110,175000;1765480231719966;0
597;1765480231720372;377,910000;1765480231720372;110,175000;1765480231719966;0
598;1765480231720373;377,910000;1765480231720372;210,405000;1765480231720373;0
599;1765480231721211;-886,470000;1765480231721211;210,405000;1765480231720373;0
600;1765480231721212;-886,470000;1765480231721211;-15,600000;1765480231721212;0
601;1765480231721479;-723,450000;1765480231721479;-15,600000;1765480231721212;0
602;1765480231721480;-723,450000;1765480231721479;-131,625000;1765480231721480;0
603;1765480231722217;178,815000;1765480231722217;-131,625000;1765480231721480;0
604;1765480231722218;178,815000;1765480231722217;453,375000;1765480231722218;0
605;1765480231722640;-1701,960000;1765480231722640;453,375000;1765480231722218;0
606;1765480231722642;-1701,960000;1765480231722640;-337,740000;1765480231722642;0
607;1765480231723273;-765,570000;1765480231723273;-337,740000;1765480231722642;0
608;1765480231723275;-765,570000;1765480231723273;125,775000;1765480231723275;0
609;1765480231723764;-515,190000;1765480231723764;125,775000;1765480231723275;0
610;1765480231723765;-515,190000;1765480231723764;366,405000;1765480231723765;0
611;1765480231724513;-759,330000;1765480231724513;366,405000;1765480231723765;0
612;1765480231724514;-759,330000;1765480231724513;335,790000;1765480231724514;0
613;1765480231724925;-79,170000;1765480231724925;335,790000;1765480231724514;0
614;1765480231724926;-79,170000;1765480231724925;453,375000;1765480231724926;0
615;1765480231725750;-1863,810000;1765480231725750;453,375000;1765480231724926;0
616;1765480231725752;-1863,810000;1765480231725750;-232,635000;1765480231725752;0
617;1765480231726101;-526,890000;1765480231726101;-232,635000;1765480231725752;0
618;1765480231726103;-526,890000;1765480231726101;349,830000;1765480231726103;0
619;1765480231727360;-1755,585000;1765480231727360;349,830000;1765480231726103;0
620;1765480231727362;-1755,585000;1765480231727360;176,475000;1765480231727362;0
621;1765480231727472;-1842,945000;1765480231727472;176,475000;1765480231727362;0
622;1765480231727474;-1842,945000;1765480231727472;-317,265000;1765480231727474;0
623;1765480231727959;-1468,740000;1765480231727959;-317,265000;1765480231727474;0
624;1765480231727960;-1468,740000;1765480231727959;112,320000;1765480231727960;0
625;1765480231729458;-1630,785000;1765480231729458;112,320000;1765480231727960;0
626;1765480231729460;-1630,785000;1765480231729458;58,695000;1765480231729460;0
627;1765480231768889;-1949,220000;1765480231768889;58,695000;1765480231729460;0
628;1765480231768893;-1949,220000;1765480231768889;-253,890000;1765480231768893;0
629;1765480231769669;-2437,890000;1765480231769669;-253,890000;1765480231768893;0
630;1765480231769672;-2437,890000;1765480231769669;-255,060000;1765480231769672;0
631;1765480231769864;-719,745000;1765480231769864;-255,060000;1765480231769672;0
632;1765480231769867;-719,745000;1765480231769864;425,295000;1765480231769867;0
633;1765480231770024;-719,745000;1765480231769864;56,940000;1765480231770024;0
634;1765480231770422;-1479,075000;1765480231770422;56,940000;1765480231770024;0
635;1765480231770424;-1479,075000;1765480231770422;507,390000;1765480231770424;0
636;1765480231770753;-1951,365000;1765480231770753;507,390000;1765480231770424;0
637;1765480231770756;-1951,365000;1765480231770753;240,435000;1765480231770756;0
638;1765480231770917;-1623,765000;1765480231770917;240,435000;1765480231770756;0
639;1765480231770919;-1623,765000;1765480231770917;316,095000;1765480231770919;0
640;1765480231770925;-473,265000;1765480231770925;316,095000;1765480231770919;0
641;1765480231770926;-473,265000;1765480231770925;584,220000;1765480231770926;0
642;1765480231771028;-616,200000;1765480231771028;584,220000;1765480231770926;0
643;1765480231771029;-616,200000;1765480231771028;673,335000;1765480231771029;0
644;1765480231771300;-2277,990000;1765480231771300;673,335000;1765480231771029;0
645;1765480231771302;-2277,990000;1765480231771300;-29,445000;1765480231771302;0
646;1765480231771612;-507,195000;1765480231771612;-29,445000;1765480231771302;0
647;1765480231771614;-507,195000;1765480231771612;976,950000;1765480231771614;0
648;1765480231772413;-1217,385000;1765480231772413;976,950000;1765480231771614;0
649;1765480231772415;-1217,385000;1765480231772413;534,885000;1765480231772415;0
650;1765480231772648;-698,880000;1765480231772648;534,885000;1765480231772415;0
651;1765480231772650;-698,880000;1765480231772648;590,655000;1765480231772650;0
652;1765480231773475;-862,875000;1765480231773475;590,655000;1765480231772650;0
653;1765480231773477;-862,875000;1765480231773475;653,835000;1765480231773477;0
654;1765480231773974;-1114,815000;1765480231773974;653,835000;1765480231773477;0
655;1765480231773976;-1114,815000;1765480231773974;366,015000;1765480231773976;0
656;1765480231774323;-1479,855000;1765480231774323;366,015000;1765480231773976;0
657;1765480231774325;-1479,855000;1765480231774323;598,455000;1765480231774325;0
658;1765480231774838;-1146,210000;1765480231774838;598,455000;1765480231774325;0
659;1765480231774839;-1146,210000;1765480231774838;440,310000;1765480231774839;0
660;1765480231775322;-1499,940000;1765480231775322;440,310000;1765480231774839;0
661;1765480231775323;-1499,940000;1765480231775322;500,955000;1765480231775323;0
662;1765480231775909;-2266,095000;1765480231775909;500,955000;1765480231775323;0
663;1765480231775910;-2266,095000;1765480231775909;-216,450000;1765480231775910;0
664;1765480231777161;-1074,645000;1765480231777161;-216,450000;1765480231775910;0
665;1765480231777162;-1074,645000;1765480231777161;-70,395000;1765480231777162;0
666;1765480231778227;-1860,690000;1765480231778227;-70,395000;1765480231777162;0
667;1765480231778228;-1860,690000;1765480231778227;-450,060000;1765480231778228;0
668;1765480231778355;-1700,205000;1765480231778355;-450,060000;1765480231778228;0
669;1765480231778356;-1700,205000;1765480231778355;-240,825000;1765480231778356;0
670;1765480231778764;-866,580000;1765480231778764;-240,825000;1765480231778356;0
671;1765480231778765;-866,580000;1765480231778764;125,775000;1765480231778765;0
672;1765480231779268;-1316,250000;1765480231779268;125,775000;1765480231778765;0
673;1765480231779269;-1316,250000;1765480231779268;-21,060000;1765480231779269;0
674;1765480231779814;-724,620000;1765480231779814;-21,060000;1765480231779269;0
675;1765480231779815;-724,620000;1765480231779814;-156,390000;1765480231779815;0
676;1765480231780475;-798,915000;1765480231780475;-156,390000;1765480231779815;0
677;1765480231780476;-798,915000;1765480231780475;220,545000;1765480231780476;0
678;1765480231780970;-924,495000;1765480231780970;220,545000;1765480231780476;0
679;1765480231780971;-924,495000;1765480231780970;-17,940000;1765480231780971;0
680;1765480231781648;-1315,860000;1765480231781648;-17,940000;1765480231780971;0
681;1765480231781649;-1315,860000;1765480231781648;-373,620000;1765480231781649;0
682;1765480231782564;-1067,040000;1765480231782564;-373,620000;1765480231781649;0
683;1765480231782566;-1067,040000;1765480231782564;-78,585000;1765480231782566;0
684;1765480231782840;-693,030000;1765480231782840;-78,585000;1765480231782566;0
685;1765480231782841;-693,030000;1765480231782840;26,910000;1765480231782841;0
686;1765480231783356;-1668,420000;1765480231783356;26,910000;1765480231782841;0
687;1765480231783357;-1668,420000;1765480231783356;-41,730000;1765480231783357;0
688;1765480231783877;-556,920000;1765480231783877;-41,730000;1765480231783357;0
689;1765480231783878;-556,920000;1765480231783877;207,480000;1765480231783878;0
690;1765480231784462;-382,980000;1765480231784462;207,480000;1765480231783878;0
691;1765480231784463;-382,980000;1765480231784462;453,375000;1765480231784463;0
692;1765480231784909;-339,690000;1765480231784909;453,375000;1765480231784463;0
693;1765480231784911;-339,690000;1765480231784909;-129,480000;1765480231784911;0
694;1765480231785562;63,375000;1765480231785562;-129,480000;1765480231784911;0
695;1765480231785563;63,375000;1765480231785562;298,935000;1765480231785563;0
696;1765480231786121;-883,740000;1765480231786121;298,935000;1765480231785563;0
697;1765480231786122;-883,740000;1765480231786121;31,395000;1765480231786122;0
698;1765480231787376;-1051,050000;1765480231787376;31,395000;1765480231786122;0
699;1765480231787378;-1051,050000;1765480231787376;-95,745000;1765480231787378;0
700;1765480231787474;-400,140000;1765480231787474;-95,745000;1765480231787378;0
701;1765480231787475;-400,140000;1765480231787474;70,590000;1765480231787475;0
702;1765480231788091;-481,650000;1765480231788091;70,590000;1765480231787475;0
703;1765480231788092;-481,650000;1765480231788091;206,310000;1765480231788092;0
704;1765480231826816;-823,875000;1765480231826816;206,310000;1765480231788092;0
705;1765480231826825;-823,875000;1765480231826816;227,760000;1765480231826825;0
706;1765480231827250;-385,905000;1765480231827250;227,760000;1765480231826825;0
707;1765480231827253;-385,905000;1765480231827250;450,840000;1765480231827253;0
708;1765480231827661;480,675000;1765480231827661;450,840000;1765480231827253;0
709;1765480231827664;480,675000;1765480231827661;817,050000;1765480231827664;0
710;1765480231828255;-1002,105000;1765480231828255;817,050000;1765480231827664;0
711;1765480231828258;-1002,105000;1765480231828255;-74,685000;1765480231828258;0
712;1765480231828891;177,255000;1765480231828891;-74,685000;1765480231828258;0
713;1765480231828894;177,255000;1765480231828891;440,700000;1765480231828894;0
714;1765480231829236;309,855000;1765480231829236;440,700000;1765480231828894;0
715;1765480231829240;309,855000;1765480231829236;739,830000;1765480231829240;0
716;1765480231829416;-108,030000;1765480231829416;739,830000;1765480231829240;0
717;1765480231829418;-108,030000;1765480231829416;641,355000;1765480231829418;0
718;1765480231830080;-207,090000;1765480231830080;641,355000;1765480231829418;0
719;1765480231830083;-207,090000;1765480231830080;561,990000;1765480231830083;0
720;1765480231830539;646,815000;1765480231830539;561,990000;1765480231830083;0
721;1765480231830541;646,815000;1765480231830539;814,515000;1765480231830541;0
722;1765480231831076;-729,690000;1765480231831076;814,515000;1765480231830541;0
723;1765480231831077;-729,690000;1765480231831076;116,415000;1765480231831077;0
724;1765480231831683;-16,575000;1765480231831683;116,415000;1765480231831077;0
725;1765480231831685;-16,575000;1765480231831683;617,565000;1765480231831685;0
726;1765480231832234;440,310000;1765480231832234;617,565000;1765480231831685;0
727;1765480231832236;440,310000;1765480231832234;258,375000;1765480231832236;0
728;1765480231832630;64,350000;1765480231832630;258,375000;1765480231832236;0
729;1765480231832632;64,350000;1765480231832630;273,975000;1765480231832632;0
730;1765480231833250;-376,545000;1765480231833250;273,975000;1765480231832632;0
731;1765480231833252;-376,545000;1765480231833250;152,880000;1765480231833252;0
732;1765480231833737;663,195000;1765480231833737;152,880000;1765480231833252;0
733;1765480231833739;663,195000;1765480231833737;358,605000;1765480231833739;0
734;1765480231834233;304,005000;1765480231834233;358,605000;1765480231833739;0
735;1765480231834235;304,005000;1765480231834233;512,070000;1765480231834235;0
736;1765480231834826;803,595000;1765480231834826;512,070000;1765480231834235;0
737;1765480231834827;803,595000;1765480231834826;478,725000;1765480231834827;0
738;1765480231835289;294,255000;1765480231835289;478,725000;1765480231834827;0
739;1765480231835291;294,255000;1765480231835289;257,595000;1765480231835291;0
740;1765480231835967;2716,155000;1765480231835967;257,595000;1765480231835291;0
741;1765480231835968;2716,155000;1765480231835967;338,520000;1765480231835968;0
742;1765480231836876;2376,855000;1765480231836876;338,520000;1765480231835968;0
743;1765480231836878;2376,855000;1765480231836876;-53,430000;1765480231836878;0
744;1765480231837323;3037,905000;1765480231837323;-53,430000;1765480231836878;0
745;1765480231837325;3037,905000;1765480231837323;342,225000;1765480231837325;0
746;1765480231837854;2827,110000;1765480231837854;342,225000;1765480231837325;0
747;1765480231837855;2827,110000;1765480231837854;-46,410000;1765480231837855;0
748;1765480231838312;2548,455000;1765480231838312;-46,410000;1765480231837855;0
749;1765480231838313;2548,455000;1765480231838312;-55,380000;1765480231838313;0
750;1765480231838928;2374,710000;1765480231838928;-55,380000;1765480231838313;0
751;1765480231838930;2374,710000;1765480231838928;-246,090000;1765480231838930;0
752;1765480231839432;3387,930000;1765480231839432;-246,090000;1765480231838930;0
753;1765480231839434;3387,930000;1765480231839432;471,900000;1765480231839434;0
754;1765480231840001;2704,455000;1765480231840001;471,900000;1765480231839434;0
755;1765480231840002;2704,455000;1765480231840001;-13,260000;1765480231840002;0
756;1765480231840486;2667,405000;1765480231840486;-13,260000;1765480231840002;0
757;1765480231840487;2667,405000;1765480231840486;-223,665000;1765480231840487;0
758;1765480231841007;2914,860000;1765480231841007;-223,665000;1765480231840487;0
759;1765480231841009;2914,860000;1765480231841007;53,235000;1765480231841009;0
760;1765480231841646;3213,210000;1765480231841646;53,235000;1765480231841009;0
761;1765480231841648;3213,210000;1765480231841646;-131,235000;1765480231841648;0
762;1765480231842193;3237,975000;1765480231842193;-131,235000;1765480231841648;0
763;1765480231842195;3237,975000;1765480231842193;-79,170000;1765480231842195;0
764;1765480231842722;3169,335000;1765480231842722;-41,145000;1765480231842722;0
765;1765480231843202;3518,190000;1765480231843202;-41,145000;1765480231842722;0
766;1765480231843203;3518,190000;1765480231843202;191,490000;1765480231843203;0
767;1765480231843832;3060,915000;1765480231843832;191,490000;1765480231843203;0
768;1765480231843833;3060,915000;1765480231843832;-72,735000;1765480231843833;0
769;1765480231844356;3755,505000;1765480231844356;-72,735000;1765480231843833;0
770;1765480231844357;3755,505000;1765480231844356;384,930000;1765480231844357;0
771;1765480231845060;4275,180000;1765480231845060;384,930000;1765480231844357;0
772;1765480231845062;4275,180000;1765480231845060;382,395000;1765480231845062;0
773;1765480231845550;3473,535000;1765480231845550;382,395000;1765480231845062;0
774;1765480231845551;3473,535000;1765480231845550;-83,850000;1765480231845551;0
775;1765480231846162;4424,550000;1765480231846162;-83,850000;1765480231845551;0
776;1765480231846164;4424,550000;1765480231846162;46,215000;1765480231846164;0
777;1765480231847311;4424,550000;1765480231846162;440,310000;1765480231847311;0
778;1765480231886585;4007,835000;1765480231886585;440,310000;1765480231847311;0
779;1765480231886588;4007,835000;1765480231886585;124,410000;1765480231886588;0
780;1765480231886745;4358,640000;1765480231886745;124,410000;1765480231886588;0
781;1765480231886746;4358,640000;1765480231886745;750,555000;1765480231886746;0
782;1765480231887029;3708,705000;1765480231887029;750,555000;1765480231886746;0
783;1765480231887031;3708,705000;1765480231887029;419,835000;1765480231887031;0
784;1765480231887676;4254,705000;1765480231887676;419,835000;1765480231887031;0
785;1765480231887677;4254,705000;1765480231887676;409,695000;1765480231887677;0
786;1765480231888204;4182,945000;1765480231888204;409,695000;1765480231887677;0
787;1765480231888205;4182,945000;1765480231888204;10,335000;1765480231888205;0
788;1765480231888544;5309,265000;1765480231888544;10,335000;1765480231888205;0
789;1765480231888546;5309,265000;1765480231888544;662,220000;1765480231888546;0
790;1765480231889247;4116,060000;1765480231889247;662,220000;1765480231888546;0
791;1765480231889248;4116,060000;1765480231889247;117,390000;1765480231889248;0
792;1765480231889675;4913,025000;1765480231889675;117,390000;1765480231889248;0
793;1765480231889677;4913,025000;1765480231889675;735,345000;1765480231889677;0
794;1765480231890320;1478,685000;1765480231890320;735,345000;1765480231889677;0
795;1765480231890321;1478,685000;1765480231890320;925,665000;1765480231890321;0
796;1765480231890787;-2197,065000;1765480231890787;925,665000;1765480231890321;0
797;1765480231890788;-2197,065000;1765480231890787;238,680000;1765480231890788;0
798;1765480231891433;-1434,420000;1765480231891433;238,680000;1765480231890788;0
799;1765480231891434;-1434,420000;1765480231891433;401,505000;1765480231891434;0
800;1765480231891927;-1404,585000;1765480231891927;401,505000;1765480231891434;0
801;1765480231891929;-1404,585000;1765480231891927;309,270000;1765480231891929;0
802;1765480231892494;-170,625000;1765480231892494;309,270000;1765480231891929;0
803;1765480231892495;-170,625000;1765480231892494;802,815000;1765480231892495;0
804;1765480231893157;-1614,015000;1765480231893157;802,815000;1765480231892495;0
805;1765480231893158;-1614,015000;1765480231893157;145,275000;1765480231893158;0
806;1765480231893621;185,445000;1765480231893621;145,275000;1765480231893158;0
807;1765480231893622;185,445000;1765480231893621;740,220000;1765480231893622;0
808;1765480231894124;-459,225000;1765480231894124;740,220000;1765480231893622;0
809;1765480231894127;-459,225000;1765480231894124;872,430000;1765480231894127;0
810;1765480231894702;403,845000;1765480231894702;872,430000;1765480231894127;0
811;1765480231894705;403,845000;1765480231894702;684,060000;1765480231894705;0
812;1765480231895375;-428,415000;1765480231895375;684,060000;1765480231894705;0
813;1765480231895377;-428,415000;1765480231895375;588,315000;1765480231895377;0
814;1765480231895888;879,645000;1765480231895888;588,315000;1765480231895377;0
815;1765480231895889;879,645000;1765480231895888;-303,615000;1765480231895889;0
816;1765480231896753;1777,035000;1765480231896753;-303,615000;1765480231895889;0
817;1765480231896755;1777,035000;1765480231896753;528,255000;1765480231896755;0
818;1765480231897154;2109,705000;1765480231897154;528,255000;1765480231896755;0
819;1765480231897155;2109,705000;1765480231897154;719,745000;1765480231897155;0
820;1765480231897684;1443,585000;1765480231897684;719,745000;1765480231897155;0
821;1765480231897686;1443,585000;1765480231897684;-255,450000;1765480231897686;0
822;1765480231898281;344,175000;1765480231898281;-255,450000;1765480231897686;0
823;1765480231898282;344,175000;1765480231898281;-300,690000;1765480231898282;0
824;1765480231898760;1205,100000;1765480231898760;-300,690000;1765480231898282;0
825;1765480231898761;1205,100000;1765480231898760;-36,660000;1765480231898761;0
826;1765480231899385;340,470000;1765480231899385;-36,660000;1765480231898761;0
827;1765480231899387;340,470000;1765480231899385;-330,330000;1765480231899387;0
828;1765480231899975;340,470000;1765480231899385;348,465000;1765480231899975;0
829;1765480231900380;685,230000;1765480231900380;348,465000;1765480231899975;0
830;1765480231900382;685,230000;1765480231900380;-548,145000;1765480231900382;0
831;1765480231901004;685,230000;1765480231900380;-578,175000;1765480231901004;0
832;1765480231901569;514,995000;1765480231901569;-578,175000;1765480231901004;0
833;1765480231901570;514,995000;1765480231901569;-169,650000;1765480231901570;0
834;1765480231902036;1072,305000;1765480231902036;-169,650000;1765480231901570;0
835;1765480231902039;1072,305000;1765480231902036;54,405000;1765480231902039;0
836;1765480231902606;577,590000;1765480231902606;54,405000;1765480231902039;0
837;1765480231902610;577,590000;1765480231902606;-442,065000;1765480231902610;0
838;1765480231903337;1551,615000;1765480231903337;-442,065000;1765480231902610;0
839;1765480231903338;1551,615000;1765480231903337;-141,765000;1765480231903338;0
840;1765480231903777;1060,800000;1765480231903777;-141,765000;1765480231903338;0
841;1765480231903778;1060,800000;1765480231903777;-40,950000;1765480231903778;0
842;1765480231904447;1302,795000;1765480231904447;-40,950000;1765480231903778;0
843;1765480231904448;1302,795000;1765480231904447;-114,465000;1765480231904448;0
844;1765480231904961;1193,790000;1765480231904961;-114,465000;1765480231904448;0
845;1765480231904962;1193,790000;1765480231904961;315,900000;1765480231904962;0
846;1765480231905440;1997,190000;1765480231905440;315,900000;1765480231904962;0
847;1765480231905441;1997,190000;1765480231905440;583,050000;1765480231905441;0
848;1765480231906263;839,670000;1765480231906263;583,050000;1765480231905441;0
849;1765480231906264;839,670000;1765480231906263;340,860000;1765480231906264;0
850;1765480231907335;1900,860000;1765480231907335;340,860000;1765480231906264;0
851;1765480231907337;1900,860000;1765480231907335;434,460000;1765480231907337;0
852;1765480231907446;917,670000;1765480231907446;434,460000;1765480231907337;0
853;1765480231907447;917,670000;1765480231907446;386,685000;1765480231907447;0
854;1765480231907766;163,215000;1765480231907766;386,685000;1765480231907447;0
855;1765480231907769;163,215000;1765480231907766;-281,970000;1765480231907769;0
856;1765480231908495;1488,240000;1765480231908495;-281,970000;1765480231907769;0
857;1765480231908496;1488,240000;1765480231908495;241,215000;1765480231908496;0
858;1765480231908895;1199,055000;1765480231908895;241,215000;1765480231908496;0
859;1765480231908896;1199,055000;1765480231908895;292,890000;1765480231908896;0
860;1765480231909366;974,415000;1765480231909366;292,890000;1765480231908896;0
861;1765480231909369;974,415000;1765480231909366;315,315000;1765480231909369;0
862;1765480231910114;805,740000;1765480231910114;315,315000;1765480231909369;0
863;1765480231910115;805,740000;1765480231910114;366,015000;1765480231910115;0
864;1765480231910488;77,415000;1765480231910488;366,015000;1765480231910115;0
865;1765480231910489;77,415000;1765480231910488;-134,745000;1765480231910489;0
866;1765480231946726;-553,215000;1765480231946726;-134,745000;1765480231910489;0
867;1765480231946730;-553,215000;1765480231946726;-278,850000;1765480231946730;0
868;1765480231947184;-453,375000;1765480231947184;-278,850000;1765480231946730;0
869;1765480231947186;-453,375000;1765480231947184;-51,480000;1765480231947186;0
870;1765480231947418;589,095000;1765480231947418;-51,480000;1765480231947186;0
871;1765480231947421;589,095000;1765480231947418;315,510000;1765480231947421;0
872;1765480231947853;296,205000;1765480231947853;315,510000;1765480231947421;0
873;1765480231947855;296,205000;1765480231947853;126,360000;1765480231947855;0
874;1765480231948728;-285,090000;1765480231948728;126,360000;1765480231947855;0
875;1765480231948730;-285,090000;1765480231948728;8,190000;1765480231948730;0
876;1765480231949244;214,110000;1765480231949244;8,190000;1765480231948730;0
877;1765480231949246;214,110000;1765480231949244;208,065000;1765480231949246;0
878;1765480231949615;197,535000;1765480231949615;208,065000;1765480231949246;0
879;1765480231949616;197,535000;1765480231949615;634,140000;1765480231949616;0
880;1765480231949894;516,555000;1765480231949894;634,140000;1765480231949616;0
881;1765480231949895;516,555000;1765480231949894;535,665000;1765480231949895;0
882;1765480231950510;185,055000;1765480231950510;535,665000;1765480231949895;0
883;1765480231950511;185,055000;1765480231950510;493,155000;1765480231950511;0
884;1765480231950888;342,615000;1765480231950888;493,155000;1765480231950511;0
885;1765480231950889;342,615000;1765480231950888;826,215000;1765480231950889;0
886;1765480231951512;-5,265000;1765480231951512;826,215000;1765480231950889;0
887;1765480231951514;-5,265000;1765480231951512;916,305000;1765480231951514;0
888;1765480231951967;-1075,035000;1765480231951967;916,305000;1765480231951514;0
889;1765480231951968;-1075,035000;1765480231951967;72,735000;1765480231951968;0
890;1765480231952424;-428,805000;1765480231952424;72,735000;1765480231951968;0
891;1765480231952425;-428,805000;1765480231952424;498,030000;1765480231952425;0
892;1765480231953212;417,885000;1765480231953212;498,030000;1765480231952425;0
893;1765480231953213;417,885000;1765480231953212;517,725000;1765480231953213;0
894;1765480231953540;-195,390000;1765480231953540;517,725000;1765480231953213;0
895;1765480231953541;-195,390000;1765480231953540;283,530000;1765480231953541;0
896;1765480231954340;-372,840000;1765480231954340;283,530000;1765480231953541;0
897;1765480231954341;-372,840000;1765480231954340;444,795000;1765480231954341;0
898;1765480231954816;-1510,665000;1765480231954816;444,795000;1765480231954341;0
899;1765480231954817;-1510,665000;1765480231954816;196,755000;1765480231954817;0
900;1765480231955247;-508,170000;1765480231955247;196,755000;1765480231954817;0
901;1765480231955248;-508,170000;1765480231955247;756,990000;1765480231955248;0
902;1765480231955875;-1492,530000;1765480231955875;756,990000;1765480231955248;0
903;1765480231955876;-1492,530000;1765480231955875;38,610000;1765480231955876;0
904;1765480231956763;-1631,370000;1765480231956763;38,610000;1765480231955876;0
905;1765480231956764;-1631,370000;1765480231956763;-141,570000;1765480231956764;0
906;1765480231957041;-1288,170000;1765480231957041;-141,570000;1765480231956764;0
907;1765480231957042;-1288,170000;1765480231957041;229,905000;1765480231957042;0
908;1765480231957649;-1814,280000;1765480231957649;229,905000;1765480231957042;0
909;1765480231957650;-1814,280000;1765480231957649;-189,735000;1765480231957650;0
910;1765480231958191;-2402,205000;1765480231958191;-189,735000;1765480231957650;0
911;1765480231958192;-2402,205000;1765480231958191;-592,995000;1765480231958192;0
912;1765480231959370;-1919,970000;1765480231959370;-592,995000;1765480231958192;0
913;1765480231959371;-1919,970000;1765480231959370;-210,405000;1765480231959371;0
914;1765480231959807;-1418,625000;1765480231959807;-210,405000;1765480231959371;0
915;1765480231959809;-1418,625000;1765480231959807;-353,730000;1765480231959809;0
916;1765480231960507;-1162,395000;1765480231960507;-353,730000;1765480231959809;0
917;1765480231960509;-1162,395000;1765480231960507;354,705000;1765480231960509;0
918;1765480231960980;-1495,845000;1765480231960980;354,705000;1765480231960509;0
919;1765480231960981;-1495,845000;1765480231960980;-236,145000;1765480231960981;0
920;1765480231961538;-544,050000;1765480231961538;-236,145000;1765480231960981;0
921;1765480231961539;-544,050000;1765480231961538;390,780000;1765480231961539;0
922;1765480231962046;-930,345000;1765480231962046;390,780000;1765480231961539;0
923;1765480231962049;-930,345000;1765480231962046;234,780000;1765480231962049;0
924;1765480231962844;-1075,230000;1765480231962844;234,780000;1765480231962049;0
925;1765480231962845;-1075,230000;1765480231962844;228,150000;1765480231962845;0
926;1765480231963206;-636,480000;1765480231963206;228,150000;1765480231962845;0
927;1765480231963208;-636,480000;1765480231963206;449,670000;1765480231963208;0
928;1765480231963907;-1516,125000;1765480231963907;449,670000;1765480231963208;0
929;1765480231963908;-1516,125000;1765480231963907;-175,305000;1765480231963908;0
930;1765480231964339;-1253,265000;1765480231964339;-175,305000;1765480231963908;0
931;1765480231964340;-1253,265000;1765480231964339;305,175000;1765480231964340;0
932;1765480231965003;-1884,090000;1765480231965003;305,175000;1765480231964340;0
933;1765480231965004;-1884,090000;1765480231965003;-336,960000;1765480231965004;0
934;1765480231965497;-397,410000;1765480231965497;-336,960000;1765480231965004;0
935;1765480231965498;-397,410000;1765480231965497;689,520000;1765480231965498;0
936;1765480231966264;-326,625000;1765480231966264;689,520000;1765480231965498;0
937;1765480231966265;-326,625000;1765480231966264;186,615000;1765480231966265;0
938;1765480231967400;-979,875000;1765480231967400;186,615000;1765480231966265;0
939;1765480231967401;-979,875000;1765480231967400;-89,115000;1765480231967401;0
940;1765480232006557;-942,825000;1765480232006557;-89,115000;1765480231967401;0
941;1765480232006560;-942,825000;1765480232006557;347,295000;1765480232006560;0
942;1765480232007138;-299,520000;1765480232007138;347,295000;1765480232006560;0
943;1765480232007141;-299,520000;1765480232007138;530,400000;1765480232007141;0
944;1765480232007391;-547,755000;1765480232007391;530,400000;1765480232007141;0
945;1765480232007394;-547,755000;1765480232007391;709,215000;1765480232007394;0
946;1765480232007794;-965,055000;1765480232007794;709,215000;1765480232007394;0
947;1765480232007796;-965,055000;1765480232007794;-123,825000;1765480232007796;0
948;1765480232008411;-816,465000;1765480232008411;-123,825000;1765480232007796;0
949;1765480232008413;-816,465000;1765480232008411;540,735000;1765480232008413;0
950;1765480232008798;-1287,585000;1765480232008798;540,735000;1765480232008413;0
951;1765480232008800;-1287,585000;1765480232008798;246,090000;1765480232008800;0
952;1765480232009259;-892,125000;1765480232009259;246,090000;1765480232008800;0
953;1765480232009261;-892,125000;1765480232009259;236,145000;1765480232009261;0
954;1765480232009812;-506,610000;1765480232009812;236,145000;1765480232009261;0
955;1765480232009814;-506,610000;1765480232009812;738,075000;1765480232009814;0
956;1765480232010338;273,390000;1765480232010338;738,075000;1765480232009814;0
957;1765480232010340;273,390000;1765480232010338;898,950000;1765480232010340;0
958;1765480232010828;273,390000;1765480232010338;1168,830000;1765480232010828;0
959;1765480232011482;299,325000;1765480232011482;1168,830000;1765480232010828;0
960;1765480232011484;299,325000;1765480232011482;749,775000;1765480232011484;0
961;1765480232011947;-220,545000;1765480232011947;749,775000;1765480232011484;0
962;1765480232011948;-220,545000;1765480232011947;1013,220000;1765480232011948;0
963;1765480232012522;-1240,785000;1765480232012522;1013,220000;1765480232011948;0
964;1765480232012524;-1240,785000;1765480232012522;-121,290000;1765480232012524;0
965;1765480232013147;135,720000;1765480232013147;-121,290000;1765480232012524;0
966;1765480232013149;135,720000;1765480232013147;752,310000;1765480232013149;0
967;1765480232013594;463,320000;1765480232013594;752,310000;1765480232013149;0
968;1765480232013596;463,320000;1765480232013594;799,695000;1765480232013596;0
969;1765480232014260;773,760000;1765480232014260;799,695000;1765480232013596;0
970;1765480232014261;773,760000;1765480232014260;663,000000;1765480232014261;0
971;1765480232014883;-1133,925000;1765480232014883;663,000000;1765480232014261;0
972;1765480232014884;-1133,925000;1765480232014883;15,600000;1765480232014884;0
973;1765480232015398;8,385000;1765480232015398;15,600000;1765480232014884;0
974;1765480232015399;8,385000;1765480232015398;286,260000;1765480232015399;0
975;1765480232015931;770,250000;1765480232015931;286,260000;1765480232015399;0
976;1765480232015933;770,250000;1765480232015931;201,240000;1765480232015933;0
977;1765480232016759;770,250000;1765480232015931;537,615000;1765480232016759;0
978;1765480232017165;714,480000;1765480232017165;537,615000;1765480232016759;0
979;1765480232017166;714,480000;1765480232017165;-78,780000;1765480232017166;0
980;1765480232017642;469,950000;1765480232017642;-78,780000;1765480232017166;0
981;1765480232017643;469,950000;1765480232017642;236,535000;1765480232017643;0
982;1765480232018305;1299,870000;1765480232018305;236,535000;1765480232017643;0
983;1765480232018307;1299,870000;1765480232018305;324,870000;1765480232018307;0
984;1765480232018746;306,150000;1765480232018746;324,870000;1765480232018307;0
985;1765480232018748;306,150000;1765480232018746;-154,635000;1765480232018748;0
986;1765480232019314;-112,515000;1765480232019314;-154,635000;1765480232018748;0
987;1765480232019315;-112,515000;1765480232019314;-298,935000;1765480232019315;0
988;1765480232019799;-6,825000;1765480232019799;-298,935000;1765480232019315;0
989;1765480232019800;-6,825000;1765480232019799;-473,265000;1765480232019800;0
990;1765480232020401;1504,620000;1765480232020401;-473,265000;1765480232019800;0
991;1765480232020402;1504,620000;1765480232020401;426,075000;1765480232020402;0
992;1765480232020979;410,085000;1765480232020979;426,075000;1765480232020402;0
993;1765480232020980;410,085000;1765480232020979;-233,610000;1765480232020980;0
994;1765480232021450;1873,950000;1765480232021450;-233,610000;1765480232020980;0
995;1765480232021451;1873,950000;1765480232021450;126,750000;1765480232021451;0
996;1765480232022172;1314,495000;1765480232022172;126,750000;1765480232021451;0
997;1765480232022173;1314,495000;1765480232022172;6,240000;1765480232022173;0
998;1765480232022573;1964,235000;1765480232022573;6,240000;1765480232022173;0
999;1765480232022574;1964,235000;1765480232022573;146,835000;1765480232022574;0
1000;1765480232024616;1382,550000;1765480232024616;146,835000;1765480232022574;0
1001;1765480232024618;1382,550000;1765480232024616;103,935000;1765480232024618;0
1002;1765480232024621;1382,550000;1765480232024616;328,575000;1765480232024621;0
1003;1765480232024704;1295,775000;1765480232024704;328,575000;1765480232024621;0
1004;1765480232024705;1295,775000;1765480232024704;-272,025000;1765480232024705;0
1005;1765480232025513;2599,740000;1765480232025513;-272,025000;1765480232024705;0
1006;1765480232025514;2599,740000;1765480232025513;257,010000;1765480232025514;0
1007;1765480232025617;2720,055000;1765480232025617;257,010000;1765480232025514;0
1008;1765480232025618;2720,055000;1765480232025617;600,795000;1765480232025618;0
1009;1765480232026929;1161,615000;1765480232026929;600,795000;1765480232025618;0
1010;1765480232026930;1161,615000;1765480232026929;-179,400000;1765480232026930;0
1011;1765480232027046;1584,570000;1765480232027046;-179,400000;1765480232026930;0
1012;1765480232027047;1584,570000;1765480232027046;-239,850000;1765480232027047;0
1013;1765480232027810;1782,690000;1765480232027810;-239,850000;1765480232027047;0
1014;1765480232027811;1782,690000;1765480232027810;-214,890000;1765480232027811;0
1015;1765480232027934;2185,950000;1765480232027934;-214,890000;1765480232027811;0
1016;1765480232027935;2185,950000;1765480232027934;8,385000;1765480232027935;0
1017;1765480232067054;2096,835000;1765480232067054;8,385000;1765480232027935;0
1018;1765480232067059;2096,835000;1765480232067054;357,630000;1765480232067059;0
1019;1765480232067703;2172,495000;1765480232067703;357,630000;1765480232067059;0
1020;1765480232067707;2172,495000;1765480232067703;-224,250000;1765480232067707;0
1021;1765480232068034;2778,750000;1765480232068034;-224,250000;1765480232067707;0
1022;1765480232068036;2778,750000;1765480232068034;356,460000;1765480232068036;0
1023;1765480232068331;2068,170000;1765480232068331;356,460000;1765480232068036;0
1024;1765480232068334;2068,170000;1765480232068331;161,655000;1765480232068334;0
1025;1765480232068858;2746,380000;1765480232068858;161,655000;1765480232068334;0
1026;1765480232068861;2746,380000;1765480232068858;312,780000;1765480232068861;0
1027;1765480232069118;3708,510000;1765480232069118;312,780000;1765480232068861;0
1028;1765480232069121;3708,510000;1765480232069118;639,990000;1765480232069121;0
1029;1765480232069928;3589,950000;1765480232069928;639,990000;1765480232069121;0
1030;1765480232069941;3589,950000;1765480232069928;733,005000;1765480232069941;0
1031;1765480232070285;3807,960000;1765480232070285;733,005000;1765480232069941;0
1032;1765480232070289;3807,960000;1765480232070285;630,240000;1765480232070289;0
1033;1765480232070506;3064,815000;1765480232070506;630,240000;1765480232070289;0
1034;1765480232070509;3064,815000;1765480232070506;207,675000;1765480232070509;0
1035;1765480232071179;3084,315000;1765480232071179;207,675000;1765480232070509;0
1036;1765480232071182;3084,315000;1765480232071179;176,280000;1765480232071182;0
1037;1765480232071565;3935,685000;1765480232071565;176,280000;1765480232071182;0
1038;1765480232071567;3935,685000;1765480232071565;166,335000;1765480232071567;0
1039;1765480232072275;4302,480000;1765480232072275;166,335000;1765480232071567;0
1040;1765480232072299;4302,480000;1765480232072275;702,975000;1765480232072299;0
1041;1765480232072632;4858,815000;1765480232072632;702,975000;1765480232072299;0
1042;1765480232072634;4858,815000;1765480232072632;838,695000;1765480232072634;0
1043;1765480232073133;4956,315000;1765480232073133;838,695000;1765480232072634;0
1044;1765480232073134;4956,315000;1765480232073133;1028,430000;1765480232073134;0
1045;1765480232073698;3964,545000;1765480232073698;1028,430000;1765480232073134;0
1046;1765480232073701;3964,545000;1765480232073698;91,455000;1765480232073701;0
1047;1765480232074284;4821,570000;1765480232074284;91,455000;1765480232073701;0
1048;1765480232074285;4821,570000;1765480232074284;931,710000;1765480232074285;0
1049;1765480232074770;4239,105000;1765480232074770;931,710000;1765480232074285;0
1050;1765480232074771;4239,105000;1765480232074770;285,870000;1765480232074771;0
1051;1765480232075380;4014,855000;1765480232075380;285,870000;1765480232074771;0
1052;1765480232075381;4014,855000;1765480232075380;162,435000;1765480232075381;0
1053;1765480232075834;4544,670000;1765480232075834;162,435000;1765480232075381;0
1054;1765480232075835;4544,670000;1765480232075834;185,055000;1765480232075835;0
1055;1765480232076709;4279,665000;1765480232076709;185,055000;1765480232075835;0
1056;1765480232076711;4279,665000;1765480232076709;-176,475000;1765480232076711;0
1057;1765480232077248;4287,660000;1765480232077248;-176,475000;1765480232076711;0
1058;1765480232077250;4287,660000;1765480232077248;385,125000;1765480232077250;0
1059;1765480232077678;2833,155000;1765480232077678;385,125000;1765480232077250;0
1060;1765480232077682;2833,155000;1765480232077678;-144,690000;1765480232077682;0
1061;1765480232078159;3609,840000;1765480232078159;-144,690000;1765480232077682;0
1062;1765480232078160;3609,840000;1765480232078159;-262,665000;1765480232078160;0
1063;1765480232078782;4145,310000;1765480232078782;-262,665000;1765480232078160;0
1064;1765480232078784;4145,310000;1765480232078782;516,945000;1765480232078784;0
1065;1765480232079403;2711,280000;1765480232079403;516,945000;1765480232078784;0
1066;1765480232079405;2711,280000;1765480232079403;567,450000;1765480232079405;0
1067;1765480232079886;939,705000;1765480232079886;567,450000;1765480232079405;0
1068;1765480232079888;939,705000;1765480232079886;-254,865000;1765480232079888;0
1069;1765480232080487;1476,540000;1765480232080487;-254,865000;1765480232079888;0
1070;1765480232080489;1476,540000;1765480232080487;148,785000;1765480232080489;0
1071;1765480232081383;2496,000000;1765480232081383;148,785000;1765480232080489;0
1072;1765480232081384;2496,000000;1765480232081383;288,210000;1765480232081384;0
1073;1765480232081701;1414,335000;1765480232081701;288,210000;1765480232081384;0
1074;1765480232081702;1414,335000;1765480232081701;89,115000;1765480232081702;0
1075;1765480232082157;1443,390000;1765480232082157;89,115000;1765480232081702;0
1076;1765480232082159;1443,390000;1765480232082157;-233,610000;1765480232082159;0
1077;1765480232086264;1443,390000;1765480232082157;-158,925000;1765480232086264;0
1078;1765480232086393;2293,005000;1765480232086393;-158,925000;1765480232086264;0
1079;1765480232086394;2293,005000;1765480232086393;194,415000;1765480232086394;0
1080;1765480232086533;1175,265000;1765480232086533;-340,665000;1765480232086533;0
1081;1765480232086935;2337,855000;1765480232086935;-340,665000;1765480232086533;0
1082;1765480232086937;2337,855000;1765480232086935;116,415000;1765480232086937;0
1083;1765480232087030;3003,390000;1765480232087030;116,415000;1765480232086937;0
1084;1765480232087031;3003,390000;1765480232087030;257,790000;1765480232087031;0
1085;1765480232087226;1690,065000;1765480232087226;257,790000;1765480232087031;0
1086;1765480232087227;1690,065000;1765480232087226;1,950000;1765480232087227;0
1087;1765480232087368;2168,205000;1765480232087368;1,950000;1765480232087227;0
1088;1765480232087369;2168,205000;1765480232087368;57,135000;1765480232087369;0
1089;1765480232087517;2168,205000;1765480232087368;83,655000;1765480232087517;0
1090;1765480232088281;1948,830000;1765480232088281;83,655000;1765480232087517;0
1091;1765480232088282;1948,830000;1765480232088281;-90,090000;1765480232088282;0
1092;1765480232126225;1426,815000;1765480232126225;-90,090000;1765480232088282;0
1093;1765480232126227;1426,815000;1765480232126225;-58,110000;1765480232126227;0
1094;1765480232126624;2466,750000;1765480232126624;-58,110000;1765480232126227;0
1095;1765480232126626;2466,750000;1765480232126624;14,430000;1765480232126626;0
1096;1765480232127140;2567,370000;1765480232127140;14,430000;1765480232126626;0
1097;1765480232127141;2567,370000;1765480232127140;359,580000;1765480232127141;0
1098;1765480232127679;1939,470000;1765480232127679;359,580000;1765480232127141;0
1099;1765480232127680;1939,470000;1765480232127679;301,470000;1765480232127680;0
1100;1765480232128093;2294,760000;1765480232128093;301,470000;1765480232127680;0
1101;1765480232128094;2294,760000;1765480232128093;214,305000;1765480232128094;0
1102;1765480232129108;1613,820000;1765480232129108;214,305000;1765480232128094;0
1103;1765480232129111;1613,820000;1765480232129108;113,295000;1765480232129111;0
1104;1765480232129417;1598,610000;1765480232129417;113,295000;1765480232129111;0
1105;1765480232129418;1598,610000;1765480232129417;91,065000;1765480232129418;0
1106;1765480232129746;2087,670000;1765480232129746;91,065000;1765480232129418;0
1107;1765480232129747;2087,670000;1765480232129746;539,760000;1765480232129747;0
1108;1765480232130370;2167,230000;1765480232130370;539,760000;1765480232129747;0
1109;1765480232130372;2167,230000;1765480232130370;142,350000;1765480232130372;0
1110;1765480232131454;2567,175000;1765480232131454;142,350000;1765480232130372;0
1111;1765480232131456;2567,175000;1765480232131454;318,045000;1765480232131456;0
1112;1765480232186872;2567,175000;1765480232131454;30,225000;1765480232186872;0
1113;1765480232249789;1809,600000;1765480232249789;30,225000;1765480232186872;0
1114;1765480232249793;1809,600000;1765480232249789;264,225000;1765480232249793;0
1115;1765480232250097;2983,110000;1765480232250097;264,225000;1765480232249793;0
1116;1765480232250100;2983,110000;1765480232250097;797,550000;1765480232250100;0
1117;1765480232251427;1451,190000;1765480232251427;797,550000;1765480232250100;0
1118;1765480232251430;1451,190000;1765480232251427;128,895000;1765480232251430;0
1119;1765480232251637;2268,045000;1765480232251637;128,895000;1765480232251430;0
1120;1765480232251641;2268,045000;1765480232251637;313,755000;1765480232251641;0
1121;1765480232252152;1867,710000;1765480232252152;313,755000;1765480232251641;0
1122;1765480232252155;1867,710000;1765480232252152;850,980000;1765480232252155;0
1123;1765480232252456;2191,410000;1765480232252456;850,980000;1765480232252155;0
1124;1765480232252458;2191,410000;1765480232252456;475,995000;1765480232252458;0
1125;1765480232252987;2610,660000;1765480232252987;475,995000;1765480232252458;0
1126;1765480232252990;2610,660000;1765480232252987;610,155000;1765480232252990;0
1127;1765480232253000;-899,145000;1765480232253000;610,155000;1765480232252990;0
1128;1765480232253001;-899,145000;1765480232253000;-231,855000;1765480232253001;0
1129;1765480232253254;-264,225000;1765480232253254;-231,855000;1765480232253001;0
1130;1765480232253256;-264,225000;1765480232253254;128,700000;1765480232253256;0
1131;1765480232253633;-1233,765000;1765480232253633;128,700000;1765480232253256;0
1132;1765480232253636;-1233,765000;1765480232253633;5,655000;1765480232253636;0
1133;1765480232253808;-1388,010000;1765480232253808;5,655000;1765480232253636;0
1134;1765480232253810;-1388,010000;1765480232253808;-226,980000;1765480232253810;0
1135;1765480232254160;-654,420000;1765480232254160;-226,980000;1765480232253810;0
1136;1765480232254162;-654,420000;1765480232254160;165,165000;1765480232254162;0
1137;1765480232254169;-825,240000;1765480232254169;165,165000;1765480232254162;0
1138;1765480232254170;-825,240000;1765480232254169;20,670000;1765480232254170;0
1139;1765480232254316;-969,345000;1765480232254316;20,670000;1765480232254170;0
1140;1765480232254318;-969,345000;1765480232254316;187,980000;1765480232254318;0
1141;1765480232254676;-1702,350000;1765480232254676;187,980000;1765480232254318;0
1142;1765480232254678;-1702,350000;1765480232254676;-103,350000;1765480232254678;0
1143;1765480232254819;-1702,350000;1765480232254676;370,890000;1765480232254819;0
1144;1765480232255132;-466,635000;1765480232255132;370,890000;1765480232254819;0
1145;1765480232255135;-466,635000;1765480232255132;469,755000;1765480232255135;0
1146;1765480232255473;4176,315000;1765480232255473;469,755000;1765480232255135;0
1147;1765480232255475;4176,315000;1765480232255473;516,750000;1765480232255475;0
1148;1765480232256450;3111,615000;1765480232256450;516,750000;1765480232255475;0
1149;1765480232256451;3111,615000;1765480232256450;-526,305000;1765480232256451;0
1150;1765480232257009;3699,345000;1765480232257009;-526,305000;1765480232256451;0
1151;1765480232257010;3699,345000;1765480232257009;-403,455000;1765480232257010;0
1152;1765480232257162;3511,170000;1765480232257162;-403,455000;1765480232257010;0
1153;1765480232257163;3511,170000;1765480232257162;-378,495000;1765480232257163;0
1154;1765480232257823;3104,010000;1765480232257823;-378,495000;1765480232257163;0
1155;1765480232257825;3104,010000;1765480232257823;-474,825000;1765480232257825;0
1156;1765480232258207;4489,485000;1765480232258207;-474,825000;1765480232257825;0
1157;1765480232258208;4489,485000;1765480232258207;65,910000;1765480232258208;0
1158;1765480232258806;4045,470000;1765480232258806;65,910000;1765480232258208;0
1159;1765480232258807;4045,470000;1765480232258806;17,745000;1765480232258807;0
1160;1765480232259247;4689,750000;1765480232259247;17,745000;1765480232258807;0
1161;1765480232259248;4689,750000;1765480232259247;173,745000;1765480232259248;0
1162;1765480232259947;3885,375000;1765480232259947;173,745000;1765480232259248;0
1163;1765480232259948;3885,375000;1765480232259947;259,935000;1765480232259948;0
1164;1765480232260388;4122,495000;1765480232260388;259,935000;1765480232259948;0
1165;1765480232260389;4122,495000;1765480232260388;337,740000;1765480232260389;0
1166;1765480232260928;4336,215000;1765480232260928;337,740000;1765480232260389;0
1167;1765480232260929;4336,215000;1765480232260928;191,685000;1765480232260929;0
1168;1765480232261566;3073,980000;1765480232261566;191,685000;1765480232260929;0
1169;1765480232261567;3073,980000;1765480232261566;-618,930000;1765480232261567;0
1170;1765480232262082;3814,980000;1765480232262082;-618,930000;1765480232261567;0
1171;1765480232262083;3814,980000;1765480232262082;-95,160000;1765480232262083;0
1172;1765480232262727;4496,895000;1765480232262727;-95,160000;1765480232262083;0
1173;1765480232262728;4496,895000;1765480232262727;78,780000;1765480232262728;0
1174;1765480232263276;4496,895000;1765480232262727;257,400000;1765480232263276;0
1175;1765480232263747;4462,575000;1765480232263747;257,400000;1765480232263276;0
1176;1765480232263748;4462,575000;1765480232263747;-129,090000;1765480232263748;0
1177;1765480232264317;4384,965000;1765480232264317;-129,090000;1765480232263748;0
1178;1765480232264318;4384,965000;1765480232264317;145,275000;1765480232264318;0
1179;1765480232265000;3601,455000;1765480232265000;145,275000;1765480232264318;0
1180;1765480232265001;3601,455000;1765480232265000;-226,785000;1765480232265001;0
1181;1765480232265728;3777,735000;1765480232265728;-226,785000;1765480232265001;0
1182;1765480232265729;3777,735000;1765480232265728;66,495000;1765480232265729;0
1183;1765480232266331;2732,925000;1765480232266331;66,495000;1765480232265729;0
1184;1765480232266332;2732,925000;1765480232266331;-332,865000;1765480232266332;0
1185;1765480232267089;3910,335000;1765480232267089;-332,865000;1765480232266332;0
1186;1765480232267091;3910,335000;1765480232267089;131,235000;1765480232267091;0
1187;1765480232267535;3333,135000;1765480232267535;131,235000;1765480232267091;0
1188;1765480232267536;3333,135000;1765480232267535;-214,305000;1765480232267536;0
1189;1765480232268581;2645,955000;1765480232268581;-214,305000;1765480232267536;0
1190;1765480232268582;2645,955000;1765480232268581;-616,005000;1765480232268582;0
1191;1765480232306831;3645,135000;1765480232306831;-616,005000;1765480232268582;0
1192;1765480232306835;3645,135000;1765480232306831;170,430000;1765480232306835;0
1193;1765480232307214;2965,755000;1765480232307214;170,430000;1765480232306835;0
1194;1765480232307221;2965,755000;1765480232307214;-276,900000;1765480232307221;0
1195;1765480232308099;4285,905000;1765480232308099;-276,900000;1765480232307221;0
1196;1765480232308102;4285,905000;1765480232308099;762,060000;1765480232308102;0
1197;1765480232308644;4277,325000;1765480232308644;762,060000;1765480232308102;0
1198;1765480232308647;4277,325000;1765480232308644;463,710000;1765480232308647;0
1199;1765480232308991;3794,700000;1765480232308991;463,710000;1765480232308647;0
1200;1765480232308994;3794,700000;1765480232308991;699,270000;1765480232308994;0
1201;1765480232309589;3919,695000;1765480232309589;699,270000;1765480232308994;0
1202;1765480232309592;3919,695000;1765480232309589;149,370000;1765480232309592;0
1203;1765480232310230;4268,355000;1765480232310230;149,370000;1765480232309592;0
1204;1765480232310233;4268,355000;1765480232310230;545,415000;1765480232310233;0
1205;1765480232310746;3951,870000;1765480232310746;545,415000;1765480232310233;0
1206;1765480232310747;3951,870000;1765480232310746;225,615000;1765480232310747;0
1207;1765480232311188;4364,685000;1765480232311188;225,615000;1765480232310747;0
1208;1765480232311190;4364,685000;1765480232311188;749,775000;1765480232311190;0
1209;1765480232311708;4364,685000;1765480232311188;-116,805000;1765480232311708;0
1210;1765480232312241;3336,255000;1765480232312241;-116,805000;1765480232311708;0
1211;1765480232312244;3336,255000;1765480232312241;222,690000;1765480232312244;0
1212;1765480232312598;3136,965000;1765480232312598;222,690000;1765480232312244;0
1213;1765480232312599;3136,965000;1765480232312598;303,615000;1765480232312599;0
1214;1765480232313230;3801,135000;1765480232313230;303,615000;1765480232312599;0
1215;1765480232313232;3801,135000;1765480232313230;707,655000;1765480232313232;0
1216;1765480232313957;4553,055000;1765480232313957;707,655000;1765480232313232;0
1217;1765480232313959;4553,055000;1765480232313957;672,945000;1765480232313959;0
1218;1765480232314356;3674,190000;1765480232314356;672,945000;1765480232313959;0
1219;1765480232314358;3674,190000;1765480232314356;695,565000;1765480232314358;0
1220;1765480232315561;4389,255000;1765480232315561;695,565000;1765480232314358;0
1221;1765480232315563;4389,255000;1765480232315561;628,485000;1765480232315563;0
1222;1765480232316003;153,270000;1765480232316003;628,485000;1765480232315563;0
1223;1765480232316005;153,270000;1765480232316003;-295,425000;1765480232316005;0
1224;1765480232316805;-195,585000;1765480232316805;-295,425000;1765480232316005;0
1225;1765480232316807;-195,585000;1765480232316805;-252,330000;1765480232316807;0
1226;1765480232317287;-216,450000;1765480232317287;-252,330000;1765480232316807;0
1227;1765480232317289;-216,450000;1765480232317287;73,710000;1765480232317289;0
1228;1765480232317911;-281,385000;1765480232317911;73,710000;1765480232317289;0
1229;1765480232317912;-281,385000;1765480232317911;-68,250000;1765480232317912;0
1230;1765480232318250;-348,465000;1765480232318250;-68,250000;1765480232317912;0
1231;1765480232318251;-348,465000;1765480232318250;22,815000;1765480232318251;0
1232;1765480232318919;82,095000;1765480232318919;22,815000;1765480232318251;0
1233;1765480232318921;82,095000;1765480232318919;142,545000;1765480232318921;0
1234;1765480232319379;267,150000;1765480232319379;142,545000;1765480232318921;0
1235;1765480232319381;267,150000;1765480232319379;-45,825000;1765480232319381;0
1236;1765480232319905;-472,485000;1765480232319905;-45,825000;1765480232319381;0
1237;1765480232319907;-472,485000;1765480232319905;-202,020000;1765480232319907;0
1238;1765480232320438;-25,935000;1765480232320438;-202,020000;1765480232319907;0
1239;1765480232320439;-25,935000;1765480232320438;196,950000;1765480232320439;0
1240;1765480232321115;432,510000;1765480232321115;196,950000;1765480232320439;0
1241;1765480232321116;432,510000;1765480232321115;331,500000;1765480232321116;0
1242;1765480232321655;-88,140000;1765480232321655;331,500000;1765480232321116;0
1243;1765480232321657;-88,140000;1765480232321655;89,115000;1765480232321657;0
1244;1765480232322210;-258,570000;1765480232322210;89,115000;1765480232321657;0
1245;1765480232322212;-258,570000;1765480232322210;-36,465000;1765480232322212;0
1246;1765480232322887;-845,130000;1765480232322887;-36,465000;1765480232322212;0
1247;1765480232322889;-845,130000;1765480232322887;21,645000;1765480232322889;0
1248;1765480232323443;-633,165000;1765480232323443;21,645000;1765480232322889;0
1249;1765480232323445;-633,165000;1765480232323443;-220,545000;1765480232323445;0
1250;1765480232323993;-517,530000;1765480232323993;-220,545000;1765480232323445;0
1251;1765480232323994;-517,530000;1765480232323993;153,855000;1765480232323994;0
1252;1765480232324378;-1599,585000;1765480232324378;153,855000;1765480232323994;0
1253;1765480232324380;-1599,585000;1765480232324378;-228,930000;1765480232324380;0
1254;1765480232325055;-1599,585000;1765480232324378;-6239,220000;1765480232325055;0
1255;1765480232325564;-628,290000;1765480232325564;-6239,220000;1765480232325055;0
1256;1765480232325566;-628,290000;1765480232325564;153,855000;1765480232325566;0
1257;1765480232326158;-316,095000;1765480232326158;153,855000;1765480232325566;0
1258;1765480232326159;-316,095000;1765480232326158;270,465000;1765480232326159;0
1259;1765480232327371;-613,080000;1765480232327371;270,465000;1765480232326159;0
1260;1765480232327373;-613,080000;1765480232327371;447,330000;1765480232327373;0
1261;1765480232327523;-826,410000;1765480232327523;447,330000;1765480232327373;0
1262;1765480232327524;-826,410000;1765480232327523;160,095000;1765480232327524;0
1263;1765480232328215;-231,855000;1765480232328215;160,095000;1765480232327524;0
1264;1765480232328216;-231,855000;1765480232328215;520,065000;1765480232328216;0
1265;1765480232366793;-1002,105000;1765480232366793;520,065000;1765480232328216;0
1266;1765480232366797;-1002,105000;1765480232366793;258,570000;1765480232366797;0
1267;1765480232367344;-1281,345000;1765480232367344;258,570000;1765480232366797;0
1268;1765480232367348;-1281,345000;1765480232367344;-60,450000;1765480232367348;0
1269;1765480232368275;-1127,685000;1765480232368275;-60,450000;1765480232367348;0
1270;1765480232368278;-1127,685000;1765480232368275;567,255000;1765480232368278;0
1271;1765480232368722;-1500,720000;1765480232368722;567,255000;1765480232368278;0
1272;1765480232368726;-1500,720000;1765480232368722;237,510000;1765480232368726;0
1273;1765480232368963;-1417,650000;1765480232368963;237,510000;1765480232368726;0
1274;1765480232368966;-1417,650000;1765480232368963;182,910000;1765480232368966;0
1275;1765480232369455;-1127,490000;1765480232369455;182,910000;1765480232368966;0
1276;1765480232369457;-1127,490000;1765480232369455;282,945000;1765480232369457;0
1277;1765480232369785;-2433,405000;1765480232369785;282,945000;1765480232369457;0
1278;1765480232369787;-2433,405000;1765480232369785;151,515000;1765480232369787;0
1279;1765480232370098;-1768,455000;1765480232370098;151,515000;1765480232369787;0
1280;1765480232370100;-1768,455000;1765480232370098;458,055000;1765480232370100;0
1281;1765480232370795;-1380,015000;1765480232370795;458,055000;1765480232370100;0
1282;1765480232370798;-1380,015000;1765480232370795;640,965000;1765480232370798;0
1283;1765480232371256;-1380,015000;1765480232370795;614,835000;1765480232371256;0
1284;1765480232371779;-1727,700000;1765480232371779;614,835000;1765480232371256;0
1285;1765480232371781;-1727,700000;1765480232371779;156,390000;1765480232371781;0
1286;1765480232372123;-2759,835000;1765480232372123;156,390000;1765480232371781;0
1287;1765480232372125;-2759,835000;1765480232372123;-115,635000;1765480232372125;0
1288;1765480232372636;-1348,230000;1765480232372636;-115,635000;1765480232372125;0
1289;1765480232372638;-1348,230000;1765480232372636;909,675000;1765480232372638;0
1290;1765480232373234;-1905,150000;1765480232373234;909,675000;1765480232372638;0
1291;1765480232373236;-1905,150000;1765480232373234;824,070000;1765480232373236;0
1292;1765480232373810;-1723,605000;1765480232373810;824,070000;1765480232373236;0
1293;1765480232373811;-1723,605000;1765480232373810;715,455000;1765480232373811;0
1294;1765480232374203;-1718,145000;1765480232374203;715,455000;1765480232373811;0
1295;1765480232374205;-1718,145000;1765480232374203;790,335000;1765480232374205;0
1296;1765480232374783;-2916,030000;1765480232374783;790,335000;1765480232374205;0
1297;1765480232374785;-2916,030000;1765480232374783;44,070000;1765480232374785;0
1298;1765480232375345;-2138,370000;1765480232375345;44,070000;1765480232374785;0
1299;1765480232375346;-2138,370000;1765480232375345;197,925000;1765480232375346;0
1300;1765480232376017;-1414,335000;1765480232376017;197,925000;1765480232375346;0
1301;1765480232376018;-1414,335000;1765480232376017;344,955000;1765480232376018;0
1302;1765480232376791;-1547,715000;1765480232376791;344,955000;1765480232376018;0
1303;1765480232376792;-1547,715000;1765480232376791;120,705000;1765480232376792;0
1304;1765480232377129;-1352,325000;1765480232377129;120,705000;1765480232376792;0
1305;1765480232377130;-1352,325000;1765480232377129;203,775000;1765480232377130;0
1306;1765480232377791;-1689,480000;1765480232377791;203,775000;1765480232377130;0
1307;1765480232377792;-1689,480000;1765480232377791;163,020000;1765480232377792;0
1308;1765480232378179;-1649,700000;1765480232378179;163,020000;1765480232377792;0
1309;1765480232378180;-1649,700000;1765480232378179;-17,550000;1765480232378180;0
1310;1765480232379375;-1506,960000;1765480232379375;-17,550000;1765480232378180;0
1311;1765480232379376;-1506,960000;1765480232379375;31,200000;1765480232379376;0
1312;1765480232379878;-1506,960000;1765480232379375;257,010000;1765480232379878;0
1313;1765480232380585;-2228,265000;1765480232380585;257,010000;1765480232379878;0
1314;1765480232380586;-2228,265000;1765480232380585;-451,425000;1765480232380586;0
1315;1765480232381036;-2371,785000;1765480232381036;-451,425000;1765480232380586;0
1316;1765480232381037;-2371,785000;1765480232381036;-405,795000;1765480232381037;0
1317;1765480232381919;-1431,690000;1765480232381919;-405,795000;1765480232381037;0
1318;1765480232381921;-1431,690000;1765480232381919;-41,730000;1765480232381921;0
1319;1765480232382247;-1019,265000;1765480232382247;-41,730000;1765480232381921;0
1320;1765480232382248;-1019,265000;1765480232382247;122,265000;1765480232382248;0
1321;1765480232382698;-2339,610000;1765480232382698;122,265000;1765480232382248;0
1322;1765480232382699;-2339,610000;1765480232382698;-272,805000;1765480232382699;0
1323;1765480232383288;-1143,870000;1765480232383288;-272,805000;1765480232382699;0
1324;1765480232383289;-1143,870000;1765480232383288;-21,450000;1765480232383289;0
1325;1765480232383835;-1721,460000;1765480232383835;-21,450000;1765480232383289;0
1326;1765480232383837;-1721,460000;1765480232383835;269,100000;1765480232383837;0
1327;1765480232384416;-867,165000;1765480232384416;269,100000;1765480232383837;0
1328;1765480232384418;-867,165000;1765480232384416;370,110000;1765480232384418;0
1329;1765480232384887;-862,875000;1765480232384887;370,110000;1765480232384418;0
1330;1765480232384888;-862,875000;1765480232384887;229,515000;1765480232384888;0
1331;1765480232385552;-1056,705000;1765480232385552;229,515000;1765480232384888;0
1332;1765480232385554;-1056,705000;1765480232385552;245,310000;1765480232385554;0
1333;1765480232386218;-129,090000;1765480232386218;245,310000;1765480232385554;0
1334;1765480232386219;-129,090000;1765480232386218;286,650000;1765480232386219;0
1335;1765480232387273;-1417,650000;1765480232387273;286,650000;1765480232386219;0
1336;1765480232387274;-1417,650000;1765480232387273;66,885000;1765480232387274;0
1337;1765480232387371;-1887,795000;1765480232387371;66,885000;1765480232387274;0
1338;1765480232387372;-1887,795000;1765480232387371;-297,960000;1765480232387372;0
1339;1765480232387829;-586,365000;1765480232387829;-297,960000;1765480232387372;0
1340;1765480232387830;-586,365000;1765480232387829;-66,105000;1765480232387830;0
1341;1765480232388731;-500,175000;1765480232388731;-66,105000;1765480232387830;0
1342;1765480232388732;-500,175000;1765480232388731;296,205000;1765480232388732;0
1343;1765480232427407;-1349,010000;1765480232427407;296,205000;1765480232388732;0
1344;1765480232427413;-1349,010000;1765480232427407;-11,700000;1765480232427413;0
1345;1765480232427906;-1173,510000;1765480232427906;-11,700000;1765480232427413;0
1346;1765480232427911;-1173,510000;1765480232427906;-347,490000;1765480232427911;0
1347;1765480232428773;-225,030000;1765480232428773;-347,490000;1765480232427911;0
1348;1765480232428777;-225,030000;1765480232428773;395,655000;1765480232428777;0
1349;1765480232429034;-663,585000;1765480232429034;395,655000;1765480232428777;0
1350;1765480232429036;-663,585000;1765480232429034;246,675000;1765480232429036;0
1351;1765480232429385;-1228,110000;1765480232429385;246,675000;1765480232429036;0
1352;1765480232429388;-1228,110000;1765480232429385;-133,185000;1765480232429388;0
1353;1765480232429574;165,750000;1765480232429574;-133,185000;1765480232429388;0
1354;1765480232429578;165,750000;1765480232429574;1094,925000;1765480232429578;0
1355;1765480232429947;-568,425000;1765480232429947;1094,925000;1765480232429578;0
1356;1765480232429949;-568,425000;1765480232429947;107,640000;1765480232429949;0
1357;1765480232430227;-568,425000;1765480232429947;928,005000;1765480232430227;0
1358;1765480232430869;172,380000;1765480232430869;928,005000;1765480232430227;0
1359;1765480232430875;172,380000;1765480232430869;115,830000;1765480232430875;0
1360;1765480232431115;-903,045000;1765480232431115;115,830000;1765480232430875;0
1361;1765480232431117;-903,045000;1765480232431115;8,190000;1765480232431117;0
1362;1765480232431741;-183,300000;1765480232431741;8,190000;1765480232431117;0
1363;1765480232431745;-183,300000;1765480232431741;588,315000;1765480232431745;0
1364;1765480232432469;-653,640000;1765480232432469;588,315000;1765480232431745;0
1365;1765480232432472;-653,640000;1765480232432469;121,095000;1765480232432472;0
1366;1765480232432756;-214,500000;1765480232432756;121,095000;1765480232432472;0
1367;1765480232432758;-214,500000;1765480232432756;431,535000;1765480232432758;0
1368;1765480232433448;994,305000;1765480232433448;431,535000;1765480232432758;0
1369;1765480232433451;994,305000;1765480232433448;752,895000;1765480232433451;0
1370;1765480232433848;344,370000;1765480232433848;752,895000;1765480232433451;0
1371;1765480232433851;344,370000;1765480232433848;268,125000;1765480232433851;0
1372;1765480232434459;1086,735000;1765480232434459;268,125000;1765480232433851;0
1373;1765480232434462;1086,735000;1765480232434459;951,015000;1765480232434462;0
1374;1765480232434951;403,455000;1765480232434951;951,015000;1765480232434462;0
1375;1765480232434954;403,455000;1765480232434951;293,085000;1765480232434954;0
1376;1765480232435669;591,630000;1765480232435669;293,085000;1765480232434954;0
1377;1765480232435671;591,630000;1765480232435669;670,215000;1765480232435671;0
1378;1765480232436005;1149,135000;1765480232436005;670,215000;1765480232435671;0
1379;1765480232436007;1149,135000;1765480232436005;78,780000;1765480232436007;0
1380;1765480232436834;1149,135000;1765480232436005;25,155000;1765480232436834;0
1381;1765480232437181;1019,265000;1765480232437181;25,155000;1765480232436834;0
1382;1765480232437182;1019,265000;1765480232437181;-221,520000;1765480232437182;0
1383;1765480232437706;1543,230000;1765480232437706;-221,520000;1765480232437182;0
1384;1765480232437707;1543,230000;1765480232437706;153,270000;1765480232437707;0
1385;1765480232438303;1164,150000;1765480232438303;153,270000;1765480232437707;0
1386;1765480232438305;1164,150000;1765480232438303;-319,215000;1765480232438305;0
1387;1765480232438776;1420,575000;1765480232438776;-319,215000;1765480232438305;0
1388;1765480232438777;1420,575000;1765480232438776;-70,590000;1765480232438777;0
1389;1765480232439404;785,070000;1765480232439404;-70,590000;1765480232438777;0
1390;1765480232439405;785,070000;1765480232439404;-740,805000;1765480232439405;0
1391;1765480232439872;2984,670000;1765480232439872;-740,805000;1765480232439405;0
1392;1765480232439874;2984,670000;1765480232439872;338,910000;1765480232439874;0
1393;1765480232440610;2597,595000;1765480232440610;338,910000;1765480232439874;0
1394;1765480232440612;2597,595000;1765480232440610;100,230000;1765480232440612;0
1395;1765480232441064;2393,430000;1765480232441064;100,230000;1765480232440612;0
1396;1765480232441066;2393,430000;1765480232441064;-99,840000;1765480232441066;0
1397;1765480232441741;3161,535000;1765480232441741;-99,840000;1765480232441066;0
1398;1765480232441743;3161,535000;1765480232441741;68,445000;1765480232441743;0
1399;1765480232442218;1757,925000;1765480232442218;68,445000;1765480232441743;0
1400;1765480232442219;1757,925000;1765480232442218;-438,945000;1765480232442219;0
1401;1765480232443130;2253,810000;1765480232443130;-438,945000;1765480232442219;0
1402;1765480232443132;2253,810000;1765480232443130;-306,735000;1765480232443132;0
1403;1765480232443496;3549,390000;1765480232443496;-306,735000;1765480232443132;0
1404;1765480232443498;3549,390000;1765480232443496;624,195000;1765480232443498;0
1405;1765480232444261;3549,390000;1765480232443496;-150,930000;1765480232444261;0
1406;1765480232444741;3321,630000;1765480232444741;-150,930000;1765480232444261;0
1407;1765480232444743;3321,630000;1765480232444741;381,420000;1765480232444743;0
1408;1765480232445012;2392,455000;1765480232445012;381,420000;1765480232444743;0
1409;1765480232445014;2392,455000;1765480232445012;18,135000;1765480232445014;0
1410;1765480232446388;4225,455000;1765480232446388;18,135000;1765480232445014;0
1411;1765480232446389;4225,455000;1765480232446388;673,725000;1765480232446389;0
1412;1765480232446520;4225,455000;1765480232446388;426,270000;1765480232446520;0
1413;1765480232447546;2852,460000;1765480232447546;-267,150000;1765480232447546;0
1414;1765480232487352;3225,105000;1765480232487352;-267,150000;1765480232447546;0
1415;1765480232487358;3225,105000;1765480232487352;40,560000;1765480232487358;0
1416;1765480232487974;3181,620000;1765480232487974;40,560000;1765480232487358;0
1417;1765480232487978;3181,620000;1765480232487974;-19,305000;1765480232487978;0
1418;1765480232489071;3511,755000;1765480232489071;-19,305000;1765480232487978;0
1419;1765480232489074;3511,755000;1765480232489071;231,270000;1765480232489074;0
1420;1765480232489515;2861,235000;1765480232489515;231,270000;1765480232489074;0
1421;1765480232489518;2861,235000;1765480232489515;-122,655000;1765480232489518;0
1422;1765480232489814;3929,445000;1765480232489814;-122,655000;1765480232489518;0
1423;1765480232489817;3929,445000;1765480232489814;332,670000;1765480232489817;0
1424;1765480232490009;4500,990000;1765480232490009;332,670000;1765480232489817;0
1425;1765480232490011;4500,990000;1765480232490009;493,935000;1765480232490011;0
1426;1765480232490443;3281,655000;1765480232490443;493,935000;1765480232490011;0
1427;1765480232490446;3281,655000;1765480232490443;151,710000;1765480232490446;0
1428;1765480232490635;4465,890000;1765480232490635;151,710000;1765480232490446;0
1429;1765480232490638;4465,890000;1765480232490635;412,620000;1765480232490638;0
1430;1765480232490782;4286,295000;1765480232490782;412,620000;1765480232490638;0
1431;1765480232490784;4286,295000;1765480232490782;257,790000;1765480232490784;0
1432;1765480232491090;5395,455000;1765480232491090;257,790000;1765480232490784;0
1433;1765480232491092;5395,455000;1765480232491090;1007,175000;1765480232491092;0
1434;1765480232491678;5395,455000;1765480232491090;256,035000;1765480232491678;0
1435;1765480232492035;2105,415000;1765480232492035;256,035000;1765480232491678;0
1436;1765480232492037;2105,415000;1765480232492035;265,395000;1765480232492037;0
1437;1765480232492527;2363,010000;1765480232492527;265,395000;1765480232492037;0
1438;1765480232492528;2363,010000;1765480232492527;322,335000;1765480232492528;0
1439;1765480232493246;2388,165000;1765480232493246;322,335000;1765480232492528;0
1440;1765480232493247;2388,165000;1765480232493246;407,355000;1765480232493247;0
1441;1765480232493838;2529,150000;1765480232493838;407,355000;1765480232493247;0
1442;1765480232493840;2529,150000;1765480232493838;166,335000;1765480232493840;0
1443;1765480232494323;2731,170000;1765480232494323;166,335000;1765480232493840;0
1444;1765480232494325;2731,170000;1765480232494323;669,435000;1765480232494325;0
1445;1765480232495412;3258,840000;1765480232495412;669,435000;1765480232494325;0
1446;1765480232495414;3258,840000;1765480232495412;447,135000;1765480232495414;0
1447;1765480232495948;1851,135000;1765480232495948;447,135000;1765480232495414;0
1448;1765480232495950;1851,135000;1765480232495948;136,305000;1765480232495950;0
1449;1765480232496806;1290,510000;1765480232496806;136,305000;1765480232495950;0
1450;1765480232496808;1290,510000;1765480232496806;-262,275000;1765480232496808;0
1451;1765480232497167;1048,320000;1765480232497167;-262,275000;1765480232496808;0
1452;1765480232497168;1048,320000;1765480232497167;-128,895000;1765480232497168;0
1453;1765480232497815;882,375000;1765480232497815;-128,895000;1765480232497168;0
1454;1765480232497817;882,375000;1765480232497815;-460,785000;1765480232497817;0
1455;1765480232498478;1627,470000;1765480232498478;-460,785000;1765480232497817;0
1456;1765480232498481;1627,470000;1765480232498478;-74,490000;1765480232498481;0
1457;1765480232499032;1888,380000;1765480232499032;-74,490000;1765480232498481;0
1458;1765480232499035;1888,380000;1765480232499032;113,880000;1765480232499035;0
1459;1765480232499429;1550,055000;1765480232499429;113,880000;1765480232499035;0
1460;1765480232499430;1550,055000;1765480232499429;-64,545000;1765480232499430;0
1461;1765480232499924;1974,960000;1765480232499924;-64,545000;1765480232499430;0
1462;1765480232499926;1974,960000;1765480232499924;297,375000;1765480232499926;0
1463;1765480232500563;1974,960000;1765480232499924;86,970000;1765480232500563;0
1464;1765480232500940;1248,000000;1765480232500940;86,970000;1765480232500563;0
1465;1765480232500941;1248,000000;1765480232500940;-225,810000;1765480232500941;0
1466;1765480232501596;2285,985000;1765480232501596;-225,810000;1765480232500941;0
1467;1765480232501597;2285,985000;1765480232501596;77,415000;1765480232501597;0
1468;1765480232502023;1361,295000;1765480232502023;-349,050000;1765480232502023;0
1469;1765480232502885;1179,555000;1765480232502885;-349,050000;1765480232502023;0
1470;1765480232502887;1179,555000;1765480232502885;63,960000;1765480232502887;0
1471;1765480232503238;1571,895000;1765480232503238;63,960000;1765480232502887;0
1472;1765480232503239;1571,895000;1765480232503238;50,115000;1765480232503239;0
1473;1765480232503843;1780,350000;1765480232503843;50,115000;1765480232503239;0
1474;1765480232503845;1780,350000;1765480232503843;184,470000;1765480232503845;0
1475;1765480232504412;2066,415000;1765480232504412;184,470000;1765480232503845;0
1476;1765480232504414;2066,415000;1765480232504412;-39,585000;1765480232504414;0
1477;1765480232504944;2066,415000;1765480232504412;390,000000;1765480232504944;0
1478;1765480232505588;1333,215000;1765480232505588;390,000000;1765480232504944;0
1479;1765480232505589;1333,215000;1765480232505588;110,175000;1765480232505589;0
1480;1765480232506043;1341,015000;1765480232506043;110,175000;1765480232505589;0
1481;1765480232506044;1341,015000;1765480232506043;-285,285000;1765480232506044;0
1482;1765480232506784;1050,270000;1765480232506784;-285,285000;1765480232506044;0
1483;1765480232506785;1050,270000;1765480232506784;151,515000;1765480232506785;0
1484;1765480232507243;1617,135000;1765480232507243;151,515000;1765480232506785;0
1485;1765480232507246;1617,135000;1765480232507243;225,420000;1765480232507246;0
1486;1765480232507837;1107,015000;1765480232507837;225,420000;1765480232507246;0
1487;1765480232507838;1107,015000;1765480232507837;-6,825000;1765480232507838;0
1488;1765480232508388;1108,380000;1765480232508388;-6,825000;1765480232507838;0
1489;1765480232508391;1108,380000;1765480232508388;-16,770000;1765480232508391;0
