Index;Time_us;Ch1_val_uV;Ch1_ts_us;Ch2_val_uV;Ch2_ts_us;StimState
0;1765905670746342;;;1328,145000;1765905670746342;0
1;1765905670746346;1528,605000;1765905670746346;1328,145000;1765905670746342;0
2;1765905670746347;1528,605000;1765905670746346;1528,605000;1765905670746347;0
3;1765905670746349;1729,065000;1765905670746349;1528,605000;1765905670746347;0
4;1765905670746350;1729,065000;1765905670746349;1729,065000;1765905670746350;0
5;1765905670746351;1929,525000;1765905670746351;1729,065000;1765905670746350;0
6;1765905670746352;1929,525000;1765905670746351;1929,525000;1765905670746352;0
7;1765905670746353;2129,985000;1765905670746353;1929,525000;1765905670746352;0
8;1765905670746354;2129,985000;1765905670746353;2129,985000;1765905670746354;0
9;1765905670746356;2330,445000;1765905670746356;2330,445000;1765905670746356;0
10;1765905670746358;2530,905000;1765905670746358;2530,905000;1765905670746358;0
11;1765905670746360;2731,365000;1765905670746360;2731,365000;1765905670746360;0
12;1765905670746362;2931,825000;1765905670746362;2931,825000;1765905670746362;0
13;1765905670746364;3132,285000;1765905670746364;3132,285000;1765905670746364;0
14;1765905670746366;3332,745000;1765905670746366;3332,745000;1765905670746366;0
15;1765905670746368;3533,205000;1765905670746368;3533,205000;1765905670746368;0
16;1765905670746369;3733,665000;1765905670746369;3533,205000;1765905670746368;0
17;1765905670746370;3733,665000;1765905670746369;3733,665000;1765905670746370;0
18;1765905670746371;3934,125000;1765905670746371;3733,665000;1765905670746370;0
19;1765905670746372;3934,125000;1765905670746371;3934,125000;1765905670746372;0
20;1765905670746373;4134,585000;1765905670746373;3934,125000;1765905670746372;0
21;1765905670746374;4134,585000;1765905670746373;4134,585000;1765905670746374;0
22;1765905670746375;4335,045000;1765905670746375;4335,045000;1765905670746375;0
23;1765905670746377;4535,505000;1765905670746377;4535,505000;1765905670746377;0
24;1765905670746379;4735,965000;1765905670746379;4735,965000;1765905670746379;0
25;1765905670746380;4936,425000;1765905670746380;4735,965000;1765905670746379;0
26;1765905670746381;4936,425000;1765905670746380;4936,425000;1765905670746381;0
27;1765905670746382;5136,885000;1765905670746382;4936,425000;1765905670746381;0
28;1765905670746383;5136,885000;1765905670746382;5136,885000;1765905670746383;0
29;1765905670748259;5537,805000;1765905670748259;5136,885000;1765905670746383;0
30;1765905670748262;5537,805000;1765905670748259;5537,805000;1765905670748262;0
31;1765905670748263;5738,265000;1765905670748263;5537,805000;1765905670748262;0
32;1765905670748264;5738,265000;1765905670748263;5738,265000;1765905670748264;0
33;1765905670748265;5938,725000;1765905670748265;5738,265000;1765905670748264;0
34;1765905670748266;5938,725000;1765905670748265;5938,725000;1765905670748266;0
35;1765905670748267;6139,185000;1765905670748267;5938,725000;1765905670748266;0
36;1765905670748268;6139,185000;1765905670748267;6139,185000;1765905670748268;0
37;1765905670748269;6339,645000;1765905670748269;6139,185000;1765905670748268;0
38;1765905670748270;6339,645000;1765905670748269;6339,645000;1765905670748270;0
39;1765905670748271;-6289,335000;1765905670748271;6339,645000;1765905670748270;0
40;1765905670748272;-6289,335000;1765905670748271;-6289,335000;1765905670748272;0
41;1765905670748273;-6088,875000;1765905670748273;-6289,335000;1765905670748272;0
42;1765905670748274;-6088,875000;1765905670748273;-6088,875000;1765905670748274;0
43;1765905670748275;-5888,415000;1765905670748275;-6088,875000;1765905670748274;0
44;1765905670748276;-5888,415000;1765905670748275;-5888,415000;1765905670748276;0
45;1765905670748277;-5687,955000;1765905670748277;-5888,415000;1765905670748276;0
46;1765905670748278;-5687,955000;1765905670748277;-5687,955000;1765905670748278;0
47;1765905670748279;-5487,495000;1765905670748279;-5487,495000;1765905670748279;0
48;1765905670748281;-5287,035000;1765905670748281;-5287,035000;1765905670748281;0
49;1765905670748282;-5086,575000;1765905670748282;-5287,035000;1765905670748281;0
50;1765905670748283;-5086,575000;1765905670748282;-5086,575000;1765905670748283;0
51;1765905670748284;-4886,115000;1765905670748284;-4886,115000;1765905670748284;0
52;1765905670748286;-4685,655000;1765905670748286;-4886,115000;1765905670748284;0
53;1765905670748287;-4685,655000;1765905670748286;-4685,655000;1765905670748287;0
54;1765905670748288;-4485,195000;1765905670748288;-4685,655000;1765905670748287;0
55;1765905670748289;-4485,195000;1765905670748288;-4485,195000;1765905670748289;0
56;1765905670748290;-4284,735000;1765905670748290;-4284,735000;1765905670748290;0
57;1765905670748292;-4084,275000;1765905670748292;-4084,275000;1765905670748292;0
58;1765905670748293;-3933,930000;1765905670748293;-4084,275000;1765905670748292;0
59;1765905670748294;-3933,930000;1765905670748293;-3883,815000;1765905670748294;0
60;1765905670748295;-3683,355000;1765905670748295;-3883,815000;1765905670748294;0
61;1765905670748296;-3683,355000;1765905670748295;-3683,355000;1765905670748296;0
62;1765905670755056;-3683,355000;1765905670748295;-3482,895000;1765905670755056;0
63;1765905670755058;-3282,435000;1765905670755058;-3482,895000;1765905670755056;0
64;1765905670755059;-3282,435000;1765905670755058;-3282,435000;1765905670755059;0
65;1765905670755060;-3081,975000;1765905670755060;-3081,975000;1765905670755060;0
66;1765905670755061;-2881,515000;1765905670755061;-3081,975000;1765905670755060;0
67;1765905670755062;-2681,055000;1765905670755062;-2881,515000;1765905670755062;0
68;1765905670755063;-2681,055000;1765905670755062;-2681,055000;1765905670755063;0
69;1765905670755064;-2480,595000;1765905670755064;-2480,595000;1765905670755064;0
70;1765905670755065;-2280,135000;1765905670755065;-2280,135000;1765905670755065;0
71;1765905670755066;-2079,675000;1765905670755066;-2079,675000;1765905670755066;0
72;1765905670755067;-1879,215000;1765905670755067;-1879,215000;1765905670755067;0
73;1765905670755073;-1678,755000;1765905670755073;-1678,755000;1765905670755073;0
74;1765905670755074;-1478,295000;1765905670755074;-1478,295000;1765905670755074;0
75;1765905670755075;-1077,375000;1765905670755075;-1277,835000;1765905670755075;0
76;1765905670755076;-876,915000;1765905670755076;-1077,375000;1765905670755076;0
77;1765905670755077;-876,915000;1765905670755076;-876,915000;1765905670755077;0
78;1765905670755078;-876,915000;1765905670755076;-3921,450000;1765905670755078;0
79;1765905670755079;-475,995000;1765905670755079;-676,455000;1765905670755079;0
80;1765905670755080;-475,995000;1765905670755079;-475,995000;1765905670755080;0
81;1765905670755081;-275,535000;1765905670755081;-275,535000;1765905670755081;0
82;1765905670755082;125,385000;1765905670755082;-75,075000;1765905670755082;0
83;1765905670755083;325,845000;1765905670755083;125,385000;1765905670755083;0
84;1765905670755084;325,845000;1765905670755083;325,845000;1765905670755084;0
85;1765905670755775;325,845000;1765905670755083;526,305000;1765905670755775;0
86;1765905670755776;726,765000;1765905670755776;526,305000;1765905670755775;0
87;1765905670755777;726,765000;1765905670755776;726,765000;1765905670755777;0
88;1765905670755778;927,225000;1765905670755778;927,225000;1765905670755778;0
89;1765905670755779;1127,685000;1765905670755779;1127,685000;1765905670755779;0
90;1765905670755780;1328,145000;1765905670755780;1127,685000;1765905670755779;0
91;1765905670755781;1328,145000;1765905670755780;1328,145000;1765905670755781;0
92;1765905670755782;1528,605000;1765905670755782;1328,145000;1765905670755781;0
93;1765905670755783;1729,065000;1765905670755783;1528,605000;1765905670755783;0
94;1765905670755784;1929,525000;1765905670755784;1729,065000;1765905670755784;0
95;1765905670755785;1929,525000;1765905670755784;1929,525000;1765905670755785;0
96;1765905670755786;2129,985000;1765905670755786;2129,985000;1765905670755786;0
97;1765905670755787;2330,445000;1765905670755787;2330,445000;1765905670755787;0
98;1765905670755788;2530,905000;1765905670755788;2530,905000;1765905670755788;0
99;1765905670755789;2731,365000;1765905670755789;2731,365000;1765905670755789;0
100;1765905670755790;2931,825000;1765905670755790;2931,825000;1765905670755790;0
101;1765905670755791;3132,285000;1765905670755791;3132,285000;1765905670755791;0
102;1765905670755792;3332,745000;1765905670755792;3332,745000;1765905670755792;0
103;1765905670755793;3533,205000;1765905670755793;3533,205000;1765905670755793;0
104;1765905670755794;3733,665000;1765905670755794;3733,665000;1765905670755794;0
105;1765905670755796;3934,125000;1765905670755796;3934,125000;1765905670755796;0
106;1765905670755797;4134,585000;1765905670755797;4134,585000;1765905670755797;0
107;1765905670755798;4335,045000;1765905670755798;4335,045000;1765905670755798;0
108;1765905670757465;4335,045000;1765905670755798;4535,505000;1765905670757465;0
109;1765905670757467;4735,965000;1765905670757467;4535,505000;1765905670757465;0
110;1765905670757468;4936,425000;1765905670757468;4735,965000;1765905670757468;0
111;1765905670757470;5136,885000;1765905670757470;4936,425000;1765905670757470;0
112;1765905670757471;5136,885000;1765905670757470;5136,885000;1765905670757471;0
113;1765905670757472;5337,345000;1765905670757472;5337,345000;1765905670757472;0
114;1765905670757473;5537,805000;1765905670757473;5537,805000;1765905670757473;0
115;1765905670757474;5938,725000;1765905670757474;5738,265000;1765905670757474;0
116;1765905670757475;6139,185000;1765905670757475;5938,725000;1765905670757475;0
117;1765905670757476;6339,645000;1765905670757476;6139,185000;1765905670757476;0
118;1765905670757477;-6289,335000;1765905670757477;6339,645000;1765905670757477;0
119;1765905670757478;-6088,875000;1765905670757478;-6289,335000;1765905670757478;0
120;1765905670757479;-5888,415000;1765905670757479;-5888,415000;1765905670757479;0
121;1765905670757481;-5487,495000;1765905670757481;-5687,955000;1765905670757481;0
122;1765905670757482;-5287,035000;1765905670757482;-5487,495000;1765905670757482;0
123;1765905670757483;-5086,575000;1765905670757483;-5287,035000;1765905670757483;0
124;1765905670757484;-5086,575000;1765905670757483;-5086,575000;1765905670757484;0
125;1765905670757485;-4886,115000;1765905670757485;-4886,115000;1765905670757485;0
126;1765905670757486;-4685,655000;1765905670757486;-4685,655000;1765905670757486;0
127;1765905670757487;-4485,195000;1765905670757487;-4485,195000;1765905670757487;0
128;1765905670757974;-4485,195000;1765905670757487;-4284,735000;1765905670757974;0
129;1765905670757975;-4084,275000;1765905670757975;-4084,275000;1765905670757975;0
130;1765905670757976;-3933,930000;1765905670757976;-4084,275000;1765905670757975;0
131;1765905670757977;-3683,355000;1765905670757977;-3883,815000;1765905670757977;0
132;1765905670757978;-3683,355000;1765905670757977;-3683,355000;1765905670757978;0
133;1765905670757979;-3482,895000;1765905670757979;-3482,895000;1765905670757979;0
134;1765905670757980;-3282,435000;1765905670757980;-3282,435000;1765905670757980;0
135;1765905670757981;-3081,975000;1765905670757981;-3081,975000;1765905670757981;0
136;1765905670757982;-2881,515000;1765905670757982;-2881,515000;1765905670757982;0
137;1765905670757983;-2681,055000;1765905670757983;-2681,055000;1765905670757983;0
138;1765905670757984;-2480,595000;1765905670757984;-2480,595000;1765905670757984;0
139;1765905670757985;-2280,135000;1765905670757985;-2280,135000;1765905670757985;0
140;1765905670757986;-2079,675000;1765905670757986;-2079,675000;1765905670757986;0
141;1765905670757987;-1879,215000;1765905670757987;-1879,215000;1765905670757987;0
142;1765905670757988;-1678,755000;1765905670757988;-1678,755000;1765905670757988;0
143;1765905670757989;-1478,295000;1765905670757989;-1478,295000;1765905670757989;0
144;1765905670757990;-1277,835000;1765905670757990;-1277,835000;1765905670757990;0
145;1765905670757991;-1077,375000;1765905670757991;-1077,375000;1765905670757991;0
146;1765905670757992;-876,915000;1765905670757992;-3921,450000;1765905670757992;0
147;1765905670757993;-475,995000;1765905670757993;-676,455000;1765905670757993;0
148;1765905670757994;-475,995000;1765905670757993;-475,995000;1765905670757994;0
149;1765905670761341;-475,995000;1765905670757993;-275,535000;1765905670761341;0
150;1765905670761343;-75,075000;1765905670761343;-75,075000;1765905670761343;0
151;1765905670761344;125,385000;1765905670761344;125,385000;1765905670761344;0
152;1765905670761345;325,845000;1765905670761345;125,385000;1765905670761344;0
153;1765905670761346;526,305000;1765905670761346;325,845000;1765905670761346;0
154;1765905670761347;726,765000;1765905670761347;526,305000;1765905670761347;0
155;1765905670761348;927,225000;1765905670761348;927,225000;1765905670761348;0
156;1765905670761349;1127,685000;1765905670761349;1127,685000;1765905670761349;0
157;1765905670761351;1328,145000;1765905670761351;1127,685000;1765905670761349;0
158;1765905670761352;1528,605000;1765905670761352;1328,145000;1765905670761352;0
159;1765905670761353;1729,065000;1765905670761353;1528,605000;1765905670761353;0
160;1765905670761354;1929,525000;1765905670761354;1729,065000;1765905670761354;0
161;1765905670761355;2129,985000;1765905670761355;1929,525000;1765905670761355;0
162;1765905670761356;2129,985000;1765905670761355;2129,985000;1765905670761356;0
163;1765905670761357;2330,445000;1765905670761357;2330,445000;1765905670761357;0
164;1765905670761358;2530,905000;1765905670761358;2530,905000;1765905670761358;0
165;1765905670761359;2731,365000;1765905670761359;2731,365000;1765905670761359;0
166;1765905670761360;2931,825000;1765905670761360;2931,825000;1765905670761360;0
167;1765905670761361;3132,285000;1765905670761361;2931,825000;1765905670761360;0
168;1765905670761362;3332,745000;1765905670761362;3132,285000;1765905670761362;0
169;1765905670761363;3533,205000;1765905670761363;3332,745000;1765905670761363;0
170;1765905670761364;3533,205000;1765905670761363;3533,205000;1765905670761364;0
171;1765905670806600;3934,125000;1765905670806600;3533,205000;1765905670761364;0
172;1765905670806602;3934,125000;1765905670806600;3934,125000;1765905670806602;0
173;1765905670806603;4134,585000;1765905670806603;3934,125000;1765905670806602;0
174;1765905670806604;4134,585000;1765905670806603;4134,585000;1765905670806604;0
175;1765905670806605;4335,045000;1765905670806605;4134,585000;1765905670806604;0
176;1765905670806606;4335,045000;1765905670806605;4335,045000;1765905670806606;0
177;1765905670806607;4535,505000;1765905670806607;4335,045000;1765905670806606;0
178;1765905670806608;4535,505000;1765905670806607;4535,505000;1765905670806608;0
179;1765905670806609;4735,965000;1765905670806609;4735,965000;1765905670806609;0
180;1765905670806611;4936,425000;1765905670806611;4936,425000;1765905670806611;0
181;1765905670806612;5136,885000;1765905670806612;5136,885000;1765905670806612;0
182;1765905670806613;5337,345000;1765905670806613;5136,885000;1765905670806612;0
183;1765905670806614;5337,345000;1765905670806613;5337,345000;1765905670806614;0
184;1765905670806616;5537,805000;1765905670806616;5337,345000;1765905670806614;0
185;1765905670806617;5537,805000;1765905670806616;5537,805000;1765905670806617;0
186;1765905670806618;5738,265000;1765905670806618;5738,265000;1765905670806618;0
187;1765905670806619;5938,725000;1765905670806619;5738,265000;1765905670806618;0
188;1765905670806620;5938,725000;1765905670806619;5938,725000;1765905670806620;0
189;1765905670806621;6139,185000;1765905670806621;6139,185000;1765905670806621;0
190;1765905670806622;6339,645000;1765905670806622;6339,645000;1765905670806622;0
191;1765905670806623;-6289,335000;1765905670806623;6339,645000;1765905670806622;0
192;1765905670806624;-6289,335000;1765905670806623;-6289,335000;1765905670806624;0
193;1765905670806625;-6088,875000;1765905670806625;-6088,875000;1765905670806625;0
194;1765905670806626;-5888,415000;1765905670806626;-6088,875000;1765905670806625;0
195;1765905670806627;-5888,415000;1765905670806626;-5888,415000;1765905670806627;0
196;1765905670806628;-5687,955000;1765905670806628;-5687,955000;1765905670806628;0
197;1765905670806629;-5487,495000;1765905670806629;-5687,955000;1765905670806628;0
198;1765905670806631;-5487,495000;1765905670806629;-5487,495000;1765905670806631;0
199;1765905670806632;-5287,035000;1765905670806632;-5287,035000;1765905670806632;0
200;1765905670808334;-4886,115000;1765905670808334;-5287,035000;1765905670806632;0
201;1765905670808346;-4886,115000;1765905670808334;-4886,115000;1765905670808346;0
202;1765905670808355;-4685,655000;1765905670808355;-4886,115000;1765905670808346;0
203;1765905670808359;-4685,655000;1765905670808355;-4685,655000;1765905670808359;0
204;1765905670808369;-4485,195000;1765905670808369;-4685,655000;1765905670808359;0
205;1765905670808370;-4284,735000;1765905670808370;-4485,195000;1765905670808370;0
206;1765905670808371;-4284,735000;1765905670808370;-4284,735000;1765905670808371;0
207;1765905670808372;-4084,275000;1765905670808372;-4084,275000;1765905670808372;0
208;1765905670808373;-3933,930000;1765905670808373;-4084,275000;1765905670808372;0
209;1765905670808374;-3683,355000;1765905670808374;-3883,815000;1765905670808374;0
210;1765905670808375;-3683,355000;1765905670808374;-3683,355000;1765905670808375;0
211;1765905670808376;-3482,895000;1765905670808376;-3482,895000;1765905670808376;0
212;1765905670808377;-3282,435000;1765905670808377;-3482,895000;1765905670808376;0
213;1765905670808378;-3081,975000;1765905670808378;-3282,435000;1765905670808378;0
214;1765905670808379;-2881,515000;1765905670808379;-3081,975000;1765905670808379;0
215;1765905670808380;-2881,515000;1765905670808379;-2881,515000;1765905670808380;0
216;1765905670808381;-2681,055000;1765905670808381;-2681,055000;1765905670808381;0
217;1765905670808382;-2480,595000;1765905670808382;-2480,595000;1765905670808382;0
218;1765905670808384;-2280,135000;1765905670808384;-2480,595000;1765905670808382;0
219;1765905670808385;-2079,675000;1765905670808385;-2280,135000;1765905670808385;0
220;1765905670808386;-1879,215000;1765905670808386;-2079,675000;1765905670808386;0
221;1765905670808387;-1678,755000;1765905670808387;-1879,215000;1765905670808387;0
222;1765905670808388;-1478,295000;1765905670808388;-1678,755000;1765905670808388;0
223;1765905670808389;-1277,835000;1765905670808389;-1478,295000;1765905670808389;0
224;1765905670808390;-1277,835000;1765905670808389;-1277,835000;1765905670808390;0
225;1765905670866682;-1277,835000;1765905670808389;-1077,375000;1765905670866682;0
226;1765905670866684;-876,915000;1765905670866684;-876,915000;1765905670866684;0
227;1765905670866685;-876,915000;1765905670866684;-3921,450000;1765905670866685;0
228;1765905670866686;-475,995000;1765905670866686;-676,455000;1765905670866686;0
229;1765905670866687;-275,535000;1765905670866687;-475,995000;1765905670866687;0
230;1765905670866688;-275,535000;1765905670866687;-275,535000;1765905670866688;0
231;1765905670866689;-75,075000;1765905670866689;-275,535000;1765905670866688;0
232;1765905670866690;-75,075000;1765905670866689;-75,075000;1765905670866690;0
233;1765905670866691;125,385000;1765905670866691;125,385000;1765905670866691;0
234;1765905670866692;325,845000;1765905670866692;325,845000;1765905670866692;0
235;1765905670866693;526,305000;1765905670866693;526,305000;1765905670866693;0
236;1765905670866694;726,765000;1765905670866694;726,765000;1765905670866694;0
237;1765905670866695;927,225000;1765905670866695;927,225000;1765905670866695;0
238;1765905670866696;1127,685000;1765905670866696;1127,685000;1765905670866696;0
239;1765905670866697;1328,145000;1765905670866697;1328,145000;1765905670866697;0
240;1765905670866698;1528,605000;1765905670866698;1528,605000;1765905670866698;0
241;1765905670866699;1729,065000;1765905670866699;1729,065000;1765905670866699;0
242;1765905670866700;2129,985000;1765905670866700;1929,525000;1765905670866700;0
243;1765905670866701;2330,445000;1765905670866701;2129,985000;1765905670866701;0
244;1765905670866702;2530,905000;1765905670866702;2330,445000;1765905670866702;0
245;1765905670866703;2731,365000;1765905670866703;2731,365000;1765905670866703;0
246;1765905670868410;3132,285000;1765905670868410;2731,365000;1765905670866703;0
247;1765905670868411;3132,285000;1765905670868410;3132,285000;1765905670868411;0
248;1765905670868414;3332,745000;1765905670868414;3332,745000;1765905670868414;0
249;1765905670868415;3533,205000;1765905670868415;3533,205000;1765905670868415;0
250;1765905670868416;3733,665000;1765905670868416;3733,665000;1765905670868416;0
251;1765905670868417;3934,125000;1765905670868417;3934,125000;1765905670868417;0
252;1765905670868418;4134,585000;1765905670868418;4134,585000;1765905670868418;0
253;1765905670868419;4335,045000;1765905670868419;4335,045000;1765905670868419;0
254;1765905670868420;4535,505000;1765905670868420;4535,505000;1765905670868420;0
255;1765905670868421;4735,965000;1765905670868421;4735,965000;1765905670868421;0
256;1765905670868422;4936,425000;1765905670868422;4936,425000;1765905670868422;0
257;1765905670868423;5337,345000;1765905670868423;5136,885000;1765905670868423;0
258;1765905670868424;5537,805000;1765905670868424;5337,345000;1765905670868424;0
259;1765905670868425;5738,265000;1765905670868425;5537,805000;1765905670868425;0
260;1765905670868426;5738,265000;1765905670868425;5738,265000;1765905670868426;0
261;1765905670868427;6139,185000;1765905670868427;5938,725000;1765905670868427;0
262;1765905670868428;6139,185000;1765905670868427;6139,185000;1765905670868428;0
263;1765905670868429;6339,645000;1765905670868429;6339,645000;1765905670868429;0
264;1765905670868430;-6289,335000;1765905670868430;-6289,335000;1765905670868430;0
265;1765905670868431;-6088,875000;1765905670868431;-6088,875000;1765905670868431;0
266;1765905670872347;-6088,875000;1765905670868431;-5888,415000;1765905670872347;0
267;1765905670872349;-5687,955000;1765905670872349;-5687,955000;1765905670872349;0
268;1765905670872350;-5487,495000;1765905670872350;-5687,955000;1765905670872349;0
269;1765905670872351;-5287,035000;1765905670872351;-5487,495000;1765905670872351;0
270;1765905670872352;-5086,575000;1765905670872352;-5287,035000;1765905670872352;0
271;1765905670872353;-4886,115000;1765905670872353;-5086,575000;1765905670872353;0
272;1765905670872354;-4685,655000;1765905670872354;-4886,115000;1765905670872354;0
273;1765905670872355;-4485,195000;1765905670872355;-4485,195000;1765905670872355;0
274;1765905670872356;-4284,735000;1765905670872356;-4485,195000;1765905670872355;0
275;1765905670872357;-4084,275000;1765905670872357;-4084,275000;1765905670872357;0
276;1765905670872358;-3933,930000;1765905670872358;-3883,815000;1765905670872358;0
277;1765905670872359;-3683,355000;1765905670872359;-3683,355000;1765905670872359;0
278;1765905670872360;-3482,895000;1765905670872360;-3482,895000;1765905670872360;0
279;1765905670872361;-3282,435000;1765905670872361;-3282,435000;1765905670872361;0
280;1765905670872363;-3081,975000;1765905670872363;-3282,435000;1765905670872361;0
281;1765905670872364;-2881,515000;1765905670872364;-3081,975000;1765905670872364;0
282;1765905670872365;-2681,055000;1765905670872365;-2881,515000;1765905670872365;0
283;1765905670872366;-2480,595000;1765905670872366;-2681,055000;1765905670872366;0
284;1765905670872367;-2280,135000;1765905670872367;-2480,595000;1765905670872367;0
285;1765905670872368;-2079,675000;1765905670872368;-2079,675000;1765905670872368;0
286;1765905670925014;-2079,675000;1765905670872368;-1879,215000;1765905670925014;0
287;1765905670925016;-1678,755000;1765905670925016;-1879,215000;1765905670925014;0
288;1765905670925017;-1678,755000;1765905670925016;-1678,755000;1765905670925017;0
289;1765905670925018;-1478,295000;1765905670925018;-1678,755000;1765905670925017;0
290;1765905670925019;-1478,295000;1765905670925018;-1478,295000;1765905670925019;0
291;1765905670925020;-1277,835000;1765905670925020;-1277,835000;1765905670925020;0
292;1765905670925021;-1077,375000;1765905670925021;-1077,375000;1765905670925021;0
293;1765905670925022;-876,915000;1765905670925022;-876,915000;1765905670925022;0
294;1765905670925023;-876,915000;1765905670925022;-676,455000;1765905670925023;0
295;1765905670925024;-475,995000;1765905670925024;-676,455000;1765905670925023;0
296;1765905670925025;-275,535000;1765905670925025;-475,995000;1765905670925025;0
297;1765905670925026;-75,075000;1765905670925026;-275,535000;1765905670925026;0
298;1765905670925028;125,385000;1765905670925028;-75,075000;1765905670925028;0
299;1765905670925029;325,845000;1765905670925029;125,385000;1765905670925029;0
300;1765905670925030;526,305000;1765905670925030;325,845000;1765905670925030;0
301;1765905670925031;726,765000;1765905670925031;726,765000;1765905670925031;0
302;1765905670925032;927,225000;1765905670925032;927,225000;1765905670925032;0
303;1765905670925033;1127,685000;1765905670925033;1127,685000;1765905670925033;0
304;1765905670925034;1328,145000;1765905670925034;1328,145000;1765905670925034;0
305;1765905670925035;1528,605000;1765905670925035;1528,605000;1765905670925035;0
306;1765905670925036;1729,065000;1765905670925036;1729,065000;1765905670925036;0
307;1765905670925037;1929,525000;1765905670925037;1929,525000;1765905670925037;0
308;1765905670927370;2330,445000;1765905670927370;1929,525000;1765905670925037;0
309;1765905670927372;2330,445000;1765905670927370;2330,445000;1765905670927372;0
310;1765905670927373;2530,905000;1765905670927373;2530,905000;1765905670927373;0
311;1765905670927374;2731,365000;1765905670927374;2731,365000;1765905670927374;0
312;1765905670927375;2931,825000;1765905670927375;2731,365000;1765905670927374;0
313;1765905670927376;3132,285000;1765905670927376;2931,825000;1765905670927376;0
314;1765905670927377;3332,745000;1765905670927377;3132,285000;1765905670927377;0
315;1765905670927378;3332,745000;1765905670927377;3332,745000;1765905670927378;0
316;1765905670927379;3533,205000;1765905670927379;3533,205000;1765905670927379;0
317;1765905670927380;3733,665000;1765905670927380;3733,665000;1765905670927380;0
318;1765905670927381;3934,125000;1765905670927381;3934,125000;1765905670927381;0
319;1765905670927383;4134,585000;1765905670927383;4134,585000;1765905670927383;0
320;1765905670927384;4335,045000;1765905670927384;4335,045000;1765905670927384;0
321;1765905670927385;4535,505000;1765905670927385;4335,045000;1765905670927384;0
322;1765905670927386;4735,965000;1765905670927386;4535,505000;1765905670927386;0
323;1765905670927387;4735,965000;1765905670927386;4735,965000;1765905670927387;0
324;1765905670927388;4936,425000;1765905670927388;4936,425000;1765905670927388;0
325;1765905670927389;5136,885000;1765905670927389;5136,885000;1765905670927389;0
326;1765905670927390;5337,345000;1765905670927390;5337,345000;1765905670927390;0
327;1765905670927391;5537,805000;1765905670927391;5337,345000;1765905670927390;0
328;1765905670927392;5738,265000;1765905670927392;5537,805000;1765905670927392;0
329;1765905670927393;5938,725000;1765905670927393;5738,265000;1765905670927393;0
330;1765905670927394;5938,725000;1765905670927393;5938,725000;1765905670927394;0
331;1765905670929941;5938,725000;1765905670927393;6139,185000;1765905670929941;0
332;1765905670929942;6339,645000;1765905670929942;6139,185000;1765905670929941;0
333;1765905670929943;6339,645000;1765905670929942;6339,645000;1765905670929943;0
334;1765905670929944;-6289,335000;1765905670929944;-6289,335000;1765905670929944;0
335;1765905670929945;-6088,875000;1765905670929945;-6088,875000;1765905670929945;0
336;1765905670929946;-5888,415000;1765905670929946;-6088,875000;1765905670929945;0
337;1765905670929947;-5687,955000;1765905670929947;-5888,415000;1765905670929947;0
338;1765905670929948;-5687,955000;1765905670929947;-5687,955000;1765905670929948;0
339;1765905670929949;-5487,495000;1765905670929949;-5487,495000;1765905670929949;0
340;1765905670929950;-5287,035000;1765905670929950;-5487,495000;1765905670929949;0
341;1765905670929951;-5287,035000;1765905670929950;-5287,035000;1765905670929951;0
342;1765905670929952;-5086,575000;1765905670929952;-5287,035000;1765905670929951;0
343;1765905670929953;-4886,115000;1765905670929953;-5086,575000;1765905670929953;0
344;1765905670929954;-4886,115000;1765905670929953;-4886,115000;1765905670929954;0
345;1765905670929955;-4685,655000;1765905670929955;-4685,655000;1765905670929955;0
346;1765905670929956;-4485,195000;1765905670929956;-4485,195000;1765905670929956;0
347;1765905670929957;-4284,735000;1765905670929957;-4284,735000;1765905670929957;0
348;1765905670929958;-4084,275000;1765905670929958;-4084,275000;1765905670929958;0
349;1765905670929959;-3933,930000;1765905670929959;-3883,815000;1765905670929959;0
350;1765905670929960;-3683,355000;1765905670929960;-3683,355000;1765905670929960;0
351;1765905670929961;-3282,435000;1765905670929961;-3482,895000;1765905670929961;0
352;1765905670929962;-3081,975000;1765905670929962;-3282,435000;1765905670929962;0
353;1765905670929963;-2881,515000;1765905670929963;-2881,515000;1765905670929963;0
354;1765905670985235;-2881,515000;1765905670929963;-2681,055000;1765905670985235;0
355;1765905670985238;-2480,595000;1765905670985238;-2681,055000;1765905670985235;0
356;1765905670985239;-2480,595000;1765905670985238;-2480,595000;1765905670985239;0
357;1765905670985240;-2280,135000;1765905670985240;-2280,135000;1765905670985240;0
358;1765905670985241;-2079,675000;1765905670985241;-2280,135000;1765905670985240;0
359;1765905670985242;-1879,215000;1765905670985242;-2079,675000;1765905670985242;0
360;1765905670985243;-1879,215000;1765905670985242;-1879,215000;1765905670985243;0
361;1765905670985244;-1678,755000;1765905670985244;-1678,755000;1765905670985244;0
362;1765905670985245;-1478,295000;1765905670985245;-1478,295000;1765905670985245;0
363;1765905670985246;-1277,835000;1765905670985246;-1277,835000;1765905670985246;0
364;1765905670985247;-1077,375000;1765905670985247;-1277,835000;1765905670985246;0
365;1765905670985248;-876,915000;1765905670985248;-1077,375000;1765905670985248;0
366;1765905670985249;-876,915000;1765905670985248;-876,915000;1765905670985249;0
367;1765905670985251;-876,915000;1765905670985248;-3921,450000;1765905670985251;0
368;1765905670985252;-876,915000;1765905670985248;-676,455000;1765905670985252;0
369;1765905670985253;-475,995000;1765905670985253;-475,995000;1765905670985253;0
370;1765905670985254;-275,535000;1765905670985254;-275,535000;1765905670985254;0
371;1765905670985255;-75,075000;1765905670985255;-75,075000;1765905670985255;0
372;1765905670985256;125,385000;1765905670985256;125,385000;1765905670985256;0
373;1765905670985257;325,845000;1765905670985257;325,845000;1765905670985257;0
374;1765905670985258;526,305000;1765905670985258;526,305000;1765905670985258;0
375;1765905670985259;726,765000;1765905670985259;726,765000;1765905670985259;0
376;1765905670985260;927,225000;1765905670985260;927,225000;1765905670985260;0
377;1765905670985261;1127,685000;1765905670985261;1127,685000;1765905670985261;0
378;1765905670988351;1528,605000;1765905670988351;1127,685000;1765905670985261;0
379;1765905670988353;1528,605000;1765905670988351;1528,605000;1765905670988353;0
380;1765905670988354;1729,065000;1765905670988354;1729,065000;1765905670988354;0
381;1765905670988355;1929,525000;1765905670988355;1929,525000;1765905670988355;0
382;1765905670988356;2129,985000;1765905670988356;1929,525000;1765905670988355;0
383;1765905670988357;2330,445000;1765905670988357;2129,985000;1765905670988357;0
384;1765905670988358;2330,445000;1765905670988357;2330,445000;1765905670988358;0
385;1765905670988359;2530,905000;1765905670988359;2530,905000;1765905670988359;0
386;1765905670988360;2731,365000;1765905670988360;2731,365000;1765905670988360;0
387;1765905670988361;2931,825000;1765905670988361;2931,825000;1765905670988361;0
388;1765905670988362;3132,285000;1765905670988362;3132,285000;1765905670988362;0
389;1765905670988363;3332,745000;1765905670988363;3132,285000;1765905670988362;0
390;1765905670988365;3533,205000;1765905670988365;3332,745000;1765905670988365;0
391;1765905670988366;3733,665000;1765905670988366;3533,205000;1765905670988366;0
392;1765905670988367;3934,125000;1765905670988367;3733,665000;1765905670988367;0
393;1765905670988368;3934,125000;1765905670988367;3934,125000;1765905670988368;0
394;1765905670988369;4134,585000;1765905670988369;4134,585000;1765905670988369;0
395;1765905670988370;4335,045000;1765905670988370;4335,045000;1765905670988370;0
396;1765905670988371;4535,505000;1765905670988371;4535,505000;1765905670988371;0
397;1765905670988372;4735,965000;1765905670988372;4735,965000;1765905670988372;0
398;1765905670988373;4936,425000;1765905670988373;4936,425000;1765905670988373;0
399;1765905670988374;5136,885000;1765905670988374;5136,885000;1765905670988374;0
400;1765905670990993;5136,885000;1765905670988374;5337,345000;1765905670990993;0
401;1765905670990995;5537,805000;1765905670990995;5337,345000;1765905670990993;0
402;1765905670990997;5537,805000;1765905670990995;5537,805000;1765905670990997;0
403;1765905670990998;5738,265000;1765905670990998;5537,805000;1765905670990997;0
404;1765905670990999;5738,265000;1765905670990998;5738,265000;1765905670990999;0
405;1765905670991000;5938,725000;1765905670991000;5938,725000;1765905670991000;0
406;1765905670991001;6139,185000;1765905670991001;5938,725000;1765905670991000;0
407;1765905670991002;6339,645000;1765905670991002;6139,185000;1765905670991002;0
408;1765905670991003;6339,645000;1765905670991002;6339,645000;1765905670991003;0
409;1765905670991004;-6289,335000;1765905670991004;-6289,335000;1765905670991004;0
410;1765905670991005;-6088,875000;1765905670991005;-6289,335000;1765905670991004;0
411;1765905670991006;-5888,415000;1765905670991006;-6088,875000;1765905670991006;0
412;1765905670991007;-5687,955000;1765905670991007;-5888,415000;1765905670991007;0
413;1765905670991008;-5687,955000;1765905670991007;-5687,955000;1765905670991008;0
414;1765905670991009;-5487,495000;1765905670991009;-5487,495000;1765905670991009;0
415;1765905670991010;-5287,035000;1765905670991010;-5287,035000;1765905670991010;0
416;1765905670991011;-5086,575000;1765905670991011;-5287,035000;1765905670991010;0
417;1765905670991012;-4886,115000;1765905670991012;-5086,575000;1765905670991012;0
418;1765905670991013;-4886,115000;1765905670991012;-4886,115000;1765905670991013;0
419;1765905670991016;-4685,655000;1765905670991016;-4685,655000;1765905670991016;0
420;1765905670991017;-4485,195000;1765905670991017;-4485,195000;1765905670991017;0
421;1765905670991018;-4284,735000;1765905670991018;-4284,735000;1765905670991018;0
422;1765905670991019;-4084,275000;1765905670991019;-4084,275000;1765905670991019;0
423;1765905670991020;-3933,930000;1765905670991020;-3883,815000;1765905670991020;0
424;1765905670991021;-3683,355000;1765905670991021;-3683,355000;1765905670991021;0
425;1765905671046542;-3683,355000;1765905670991021;-3482,895000;1765905671046542;0
426;1765905671046546;-3282,435000;1765905671046546;-3482,895000;1765905671046542;0
427;1765905671046547;-3282,435000;1765905671046546;-3282,435000;1765905671046547;0
428;1765905671046549;-3081,975000;1765905671046549;-3282,435000;1765905671046547;0
429;1765905671046550;-3081,975000;1765905671046549;-3081,975000;1765905671046550;0
430;1765905671046551;-2881,515000;1765905671046551;-3081,975000;1765905671046550;0
431;1765905671046552;-2881,515000;1765905671046551;-2881,515000;1765905671046552;0
432;1765905671046553;-2681,055000;1765905671046553;-2881,515000;1765905671046552;0
433;1765905671046554;-2681,055000;1765905671046553;-2681,055000;1765905671046554;0
434;1765905671046555;-2480,595000;1765905671046555;-2480,595000;1765905671046555;0
435;1765905671046557;-2280,135000;1765905671046557;-2280,135000;1765905671046557;0
436;1765905671046558;-2079,675000;1765905671046558;-2280,135000;1765905671046557;0
437;1765905671046559;-2079,675000;1765905671046558;-2079,675000;1765905671046559;0
438;1765905671046560;-1879,215000;1765905671046560;-2079,675000;1765905671046559;0
439;1765905671046561;-1879,215000;1765905671046560;-1879,215000;1765905671046561;0
440;1765905671046562;-1678,755000;1765905671046562;-1879,215000;1765905671046561;0
441;1765905671046563;-1678,755000;1765905671046562;-1678,755000;1765905671046563;0
442;1765905671046564;-1478,295000;1765905671046564;-1478,295000;1765905671046564;0
443;1765905671046565;-1277,835000;1765905671046565;-1478,295000;1765905671046564;0
444;1765905671046566;-1277,835000;1765905671046565;-1277,835000;1765905671046566;0
445;1765905671046567;-1077,375000;1765905671046567;-1277,835000;1765905671046566;0
446;1765905671046568;-1077,375000;1765905671046567;-1077,375000;1765905671046568;0
447;1765905671046569;-876,915000;1765905671046569;-1077,375000;1765905671046568;0
448;1765905671046570;-876,915000;1765905671046569;-876,915000;1765905671046570;0
449;1765905671046571;-876,915000;1765905671046569;-3921,450000;1765905671046571;0
450;1765905671046572;-876,915000;1765905671046569;-676,455000;1765905671046572;0
451;1765905671046573;-475,995000;1765905671046573;-676,455000;1765905671046572;0
452;1765905671046574;-475,995000;1765905671046573;-475,995000;1765905671046574;0
453;1765905671046575;-275,535000;1765905671046575;-275,535000;1765905671046575;0
454;1765905671046576;-75,075000;1765905671046576;-275,535000;1765905671046575;0
455;1765905671046579;-75,075000;1765905671046576;-75,075000;1765905671046579;0
456;1765905671046580;125,385000;1765905671046580;-75,075000;1765905671046579;0
457;1765905671046581;125,385000;1765905671046580;125,385000;1765905671046581;0
458;1765905671046582;325,845000;1765905671046582;325,845000;1765905671046582;0
459;1765905671047580;726,765000;1765905671047580;325,845000;1765905671046582;0
460;1765905671047583;726,765000;1765905671047580;726,765000;1765905671047583;0
461;1765905671047585;927,225000;1765905671047585;726,765000;1765905671047583;0
462;1765905671047586;927,225000;1765905671047585;927,225000;1765905671047586;0
463;1765905671047587;1127,685000;1765905671047587;927,225000;1765905671047586;0
464;1765905671047588;1127,685000;1765905671047587;1127,685000;1765905671047588;0
465;1765905671047589;1328,145000;1765905671047589;1127,685000;1765905671047588;0
466;1765905671047590;1328,145000;1765905671047589;1328,145000;1765905671047590;0
467;1765905671047591;1528,605000;1765905671047591;1328,145000;1765905671047590;0
468;1765905671047592;1528,605000;1765905671047591;1528,605000;1765905671047592;0
469;1765905671047593;1729,065000;1765905671047593;1729,065000;1765905671047593;0
470;1765905671047595;1929,525000;1765905671047595;1929,525000;1765905671047595;0
471;1765905671047597;2129,985000;1765905671047597;2129,985000;1765905671047597;0
472;1765905671047599;2330,445000;1765905671047599;2330,445000;1765905671047599;0
473;1765905671047600;2530,905000;1765905671047600;2330,445000;1765905671047599;0
474;1765905671047601;2530,905000;1765905671047600;2530,905000;1765905671047601;0
475;1765905671047602;2731,365000;1765905671047602;2530,905000;1765905671047601;0
476;1765905671047603;2731,365000;1765905671047602;2731,365000;1765905671047603;0
477;1765905671047604;2931,825000;1765905671047604;2931,825000;1765905671047604;0
478;1765905671047605;3132,285000;1765905671047605;2931,825000;1765905671047604;0
479;1765905671047606;3132,285000;1765905671047605;3132,285000;1765905671047606;0
480;1765905671047607;3332,745000;1765905671047607;3132,285000;1765905671047606;0
481;1765905671047608;3332,745000;1765905671047607;3332,745000;1765905671047608;0
482;1765905671047609;3533,205000;1765905671047609;3533,205000;1765905671047609;0
483;1765905671047610;3733,665000;1765905671047610;3533,205000;1765905671047609;0
484;1765905671047611;3733,665000;1765905671047610;3733,665000;1765905671047611;0
485;1765905671047612;3934,125000;1765905671047612;3733,665000;1765905671047611;0
486;1765905671047613;3934,125000;1765905671047612;3934,125000;1765905671047613;0
487;1765905671047614;4134,585000;1765905671047614;3934,125000;1765905671047613;0
488;1765905671047615;4134,585000;1765905671047614;4134,585000;1765905671047615;0
489;1765905671047616;4335,045000;1765905671047616;4335,045000;1765905671047616;0
490;1765905671050332;4335,045000;1765905671047616;4535,505000;1765905671050332;0
491;1765905671050336;4735,965000;1765905671050336;4535,505000;1765905671050332;0
492;1765905671050337;4735,965000;1765905671050336;4735,965000;1765905671050337;0
493;1765905671050340;4936,425000;1765905671050340;4735,965000;1765905671050337;0
494;1765905671050341;4936,425000;1765905671050340;4936,425000;1765905671050341;0
495;1765905671050342;5136,885000;1765905671050342;4936,425000;1765905671050341;0
496;1765905671050343;5136,885000;1765905671050342;5136,885000;1765905671050343;0
497;1765905671050344;5337,345000;1765905671050344;5337,345000;1765905671050344;0
498;1765905671050346;5537,805000;1765905671050346;5537,805000;1765905671050346;0
499;1765905671050347;5738,265000;1765905671050347;5537,805000;1765905671050346;0
500;1765905671050348;5738,265000;1765905671050347;5738,265000;1765905671050348;0
501;1765905671050349;5938,725000;1765905671050349;5738,265000;1765905671050348;0
502;1765905671050350;5938,725000;1765905671050349;5938,725000;1765905671050350;0
503;1765905671050351;6139,185000;1765905671050351;5938,725000;1765905671050350;0
504;1765905671050352;6139,185000;1765905671050351;6139,185000;1765905671050352;0
505;1765905671050353;6339,645000;1765905671050353;6139,185000;1765905671050352;0
506;1765905671050354;6339,645000;1765905671050353;6339,645000;1765905671050354;0
507;1765905671050355;-6289,335000;1765905671050355;-6289,335000;1765905671050355;0
508;1765905671050356;-6088,875000;1765905671050356;-6289,335000;1765905671050355;0
509;1765905671050357;-6088,875000;1765905671050356;-6088,875000;1765905671050357;0
510;1765905671050358;-5888,415000;1765905671050358;-6088,875000;1765905671050357;0
511;1765905671050359;-5888,415000;1765905671050358;-5888,415000;1765905671050359;0
512;1765905671050360;-5687,955000;1765905671050360;-5687,955000;1765905671050360;0
513;1765905671050362;-5487,495000;1765905671050362;-5487,495000;1765905671050362;0
514;1765905671050363;-5287,035000;1765905671050363;-5487,495000;1765905671050362;0
515;1765905671050364;-5287,035000;1765905671050363;-5287,035000;1765905671050364;0
516;1765905671050365;-5086,575000;1765905671050365;-5287,035000;1765905671050364;0
517;1765905671050366;-5086,575000;1765905671050365;-5086,575000;1765905671050366;0
518;1765905671050367;-4886,115000;1765905671050367;-4886,115000;1765905671050367;0
519;1765905671050369;-4685,655000;1765905671050369;-4685,655000;1765905671050369;0
520;1765905671050370;-4485,195000;1765905671050370;-4685,655000;1765905671050369;0
521;1765905671050371;-4485,195000;1765905671050370;-4485,195000;1765905671050371;0
522;1765905671105636;-4485,195000;1765905671050370;-4284,735000;1765905671105636;0
523;1765905671105639;-4084,275000;1765905671105639;-4284,735000;1765905671105636;0
524;1765905671105640;-4084,275000;1765905671105639;-4084,275000;1765905671105640;0
525;1765905671105641;-3933,930000;1765905671105641;-4084,275000;1765905671105640;0
526;1765905671105642;-3933,930000;1765905671105641;-3883,815000;1765905671105642;0
527;1765905671105643;-3683,355000;1765905671105643;-3883,815000;1765905671105642;0
528;1765905671105644;-3683,355000;1765905671105643;-3683,355000;1765905671105644;0
529;1765905671105645;-3482,895000;1765905671105645;-3683,355000;1765905671105644;0
530;1765905671105646;-3482,895000;1765905671105645;-3482,895000;1765905671105646;0
531;1765905671105647;-3282,435000;1765905671105647;-3282,435000;1765905671105647;0
532;1765905671105648;-3081,975000;1765905671105648;-3282,435000;1765905671105647;0
533;1765905671105649;-3081,975000;1765905671105648;-3081,975000;1765905671105649;0
534;1765905671105650;-2881,515000;1765905671105650;-2881,515000;1765905671105650;0
535;1765905671105651;-2681,055000;1765905671105651;-2881,515000;1765905671105650;0
536;1765905671105654;-2681,055000;1765905671105651;-2681,055000;1765905671105654;0
537;1765905671105655;-2480,595000;1765905671105655;-2480,595000;1765905671105655;0
538;1765905671105656;-2280,135000;1765905671105656;-2480,595000;1765905671105655;0
539;1765905671105657;-2280,135000;1765905671105656;-2280,135000;1765905671105657;0
540;1765905671105658;-2079,675000;1765905671105658;-2280,135000;1765905671105657;0
541;1765905671105659;-2079,675000;1765905671105658;-2079,675000;1765905671105659;0
542;1765905671105660;-1879,215000;1765905671105660;-1879,215000;1765905671105660;0
543;1765905671105661;-1678,755000;1765905671105661;-1879,215000;1765905671105660;0
544;1765905671105662;-1678,755000;1765905671105661;-1678,755000;1765905671105662;0
545;1765905671105663;-1478,295000;1765905671105663;-1478,295000;1765905671105663;0
546;1765905671105664;-1277,835000;1765905671105664;-1277,835000;1765905671105664;0
547;1765905671105665;-1077,375000;1765905671105665;-1277,835000;1765905671105664;0
548;1765905671105666;-1077,375000;1765905671105665;-1077,375000;1765905671105666;0
549;1765905671105667;-876,915000;1765905671105667;-876,915000;1765905671105667;0
550;1765905671105668;-876,915000;1765905671105667;-3921,450000;1765905671105668;0
551;1765905671105669;-876,915000;1765905671105667;-676,455000;1765905671105669;0
552;1765905671105670;-475,995000;1765905671105670;-475,995000;1765905671105670;0
553;1765905671107443;-75,075000;1765905671107443;-475,995000;1765905671105670;0
554;1765905671107445;-75,075000;1765905671107443;-75,075000;1765905671107445;0
555;1765905671107446;125,385000;1765905671107446;-75,075000;1765905671107445;0
556;1765905671107447;125,385000;1765905671107446;125,385000;1765905671107447;0
557;1765905671107448;325,845000;1765905671107448;325,845000;1765905671107448;0
558;1765905671107449;526,305000;1765905671107449;325,845000;1765905671107448;0
559;1765905671107450;526,305000;1765905671107449;526,305000;1765905671107450;0
560;1765905671107451;726,765000;1765905671107451;726,765000;1765905671107451;0
561;1765905671107452;927,225000;1765905671107452;726,765000;1765905671107451;0
562;1765905671107453;927,225000;1765905671107452;927,225000;1765905671107453;0
563;1765905671107454;1127,685000;1765905671107454;1127,685000;1765905671107454;0
564;1765905671107455;1328,145000;1765905671107455;1127,685000;1765905671107454;0
565;1765905671107456;1328,145000;1765905671107455;1328,145000;1765905671107456;0
566;1765905671107457;1528,605000;1765905671107457;1528,605000;1765905671107457;0
567;1765905671107458;1729,065000;1765905671107458;1729,065000;1765905671107458;0
568;1765905671107459;1929,525000;1765905671107459;1929,525000;1765905671107459;0
569;1765905671107460;2129,985000;1765905671107460;2129,985000;1765905671107460;0
570;1765905671107461;2330,445000;1765905671107461;2330,445000;1765905671107461;0
571;1765905671107462;2530,905000;1765905671107462;2530,905000;1765905671107462;0
572;1765905671107463;2731,365000;1765905671107463;2530,905000;1765905671107462;0
573;1765905671107464;2731,365000;1765905671107463;2731,365000;1765905671107464;0
574;1765905671107465;2931,825000;1765905671107465;2931,825000;1765905671107465;0
575;1765905671107466;3132,285000;1765905671107466;3132,285000;1765905671107466;0
576;1765905671107468;3332,745000;1765905671107468;3332,745000;1765905671107468;0
577;1765905671107469;3533,205000;1765905671107469;3533,205000;1765905671107469;0
578;1765905671110226;3533,205000;1765905671107469;3733,665000;1765905671110226;0
579;1765905671110228;3934,125000;1765905671110228;3733,665000;1765905671110226;0
580;1765905671110229;3934,125000;1765905671110228;3934,125000;1765905671110229;0
581;1765905671110230;4134,585000;1765905671110230;4134,585000;1765905671110230;0
582;1765905671110231;4335,045000;1765905671110231;4134,585000;1765905671110230;0
583;1765905671110232;4335,045000;1765905671110231;4335,045000;1765905671110232;0
584;1765905671110233;4535,505000;1765905671110233;4535,505000;1765905671110233;0
585;1765905671110234;4735,965000;1765905671110234;4535,505000;1765905671110233;0
586;1765905671110235;4735,965000;1765905671110234;4735,965000;1765905671110235;0
587;1765905671110236;4936,425000;1765905671110236;4936,425000;1765905671110236;0
588;1765905671110237;5136,885000;1765905671110237;4936,425000;1765905671110236;0
589;1765905671110238;5136,885000;1765905671110237;5136,885000;1765905671110238;0
590;1765905671110239;5337,345000;1765905671110239;5337,345000;1765905671110239;0
591;1765905671110240;5537,805000;1765905671110240;5337,345000;1765905671110239;0
592;1765905671110241;5537,805000;1765905671110240;5537,805000;1765905671110241;0
593;1765905671110242;5738,265000;1765905671110242;5738,265000;1765905671110242;0
594;1765905671110243;5938,725000;1765905671110243;5938,725000;1765905671110243;0
595;1765905671110244;6139,185000;1765905671110244;6139,185000;1765905671110244;0
596;1765905671110245;6339,645000;1765905671110245;6139,185000;1765905671110244;0
597;1765905671110246;-6289,335000;1765905671110246;6339,645000;1765905671110246;0
598;1765905671110247;-6289,335000;1765905671110246;-6289,335000;1765905671110247;0
599;1765905671110248;-6088,875000;1765905671110248;-6289,335000;1765905671110247;0
600;1765905671110249;-5888,415000;1765905671110249;-6088,875000;1765905671110249;0
601;1765905671110250;-5888,415000;1765905671110249;-5888,415000;1765905671110250;0
602;1765905671110251;-5687,955000;1765905671110251;-5687,955000;1765905671110251;0
603;1765905671110252;-5487,495000;1765905671110252;-5687,955000;1765905671110251;0
604;1765905671110257;-5287,035000;1765905671110257;-5487,495000;1765905671110257;0
605;1765905671110258;-5287,035000;1765905671110257;-5287,035000;1765905671110258;0
606;1765905671168727;-5287,035000;1765905671110257;-5086,575000;1765905671168727;0
607;1765905671168729;-4886,115000;1765905671168729;-5086,575000;1765905671168727;0
608;1765905671168730;-4886,115000;1765905671168729;-4886,115000;1765905671168730;0
609;1765905671168731;-4685,655000;1765905671168731;-4685,655000;1765905671168731;0
610;1765905671168732;-4485,195000;1765905671168732;-4485,195000;1765905671168732;0
611;1765905671168733;-4284,735000;1765905671168733;-4284,735000;1765905671168733;0
612;1765905671168734;-4084,275000;1765905671168734;-4284,735000;1765905671168733;0
613;1765905671168735;-3933,930000;1765905671168735;-4084,275000;1765905671168735;0
614;1765905671168736;-3683,355000;1765905671168736;-3883,815000;1765905671168736;0
615;1765905671168737;-3683,355000;1765905671168736;-3683,355000;1765905671168737;0
616;1765905671168738;-3482,895000;1765905671168738;-3683,355000;1765905671168737;0
617;1765905671168740;-3282,435000;1765905671168740;-3482,895000;1765905671168740;0
618;1765905671168741;-3282,435000;1765905671168740;-3282,435000;1765905671168741;0
619;1765905671168742;-3081,975000;1765905671168742;-3081,975000;1765905671168742;0
620;1765905671168743;-2881,515000;1765905671168743;-3081,975000;1765905671168742;0
621;1765905671168744;-2681,055000;1765905671168744;-2881,515000;1765905671168744;0
622;1765905671168745;-2681,055000;1765905671168744;-2681,055000;1765905671168745;0
623;1765905671168746;-2480,595000;1765905671168746;-2480,595000;1765905671168746;0
624;1765905671168747;-2280,135000;1765905671168747;-2280,135000;1765905671168747;0
625;1765905671168748;-2079,675000;1765905671168748;-2079,675000;1765905671168748;0
626;1765905671168749;-1879,215000;1765905671168749;-2079,675000;1765905671168748;0
627;1765905671168750;-1678,755000;1765905671168750;-1879,215000;1765905671168750;0
628;1765905671168751;-1478,295000;1765905671168751;-1478,295000;1765905671168751;0
629;1765905671168752;-1277,835000;1765905671168752;-1478,295000;1765905671168751;0
630;1765905671168753;-1277,835000;1765905671168752;-1277,835000;1765905671168753;0
631;1765905671169271;-876,915000;1765905671169271;-1277,835000;1765905671168753;0
632;1765905671169272;-876,915000;1765905671169271;-876,915000;1765905671169272;0
633;1765905671169273;-876,915000;1765905671169271;-3921,450000;1765905671169273;0
634;1765905671169274;-876,915000;1765905671169271;-676,455000;1765905671169274;0
635;1765905671169275;-475,995000;1765905671169275;-475,995000;1765905671169275;0
636;1765905671169276;-275,535000;1765905671169276;-275,535000;1765905671169276;0
637;1765905671169277;-75,075000;1765905671169277;-75,075000;1765905671169277;0
638;1765905671169278;125,385000;1765905671169278;-75,075000;1765905671169277;0
639;1765905671169279;325,845000;1765905671169279;125,385000;1765905671169279;0
640;1765905671169280;526,305000;1765905671169280;325,845000;1765905671169280;0
641;1765905671169281;526,305000;1765905671169280;526,305000;1765905671169281;0
642;1765905671169282;726,765000;1765905671169282;726,765000;1765905671169282;0
643;1765905671169283;927,225000;1765905671169283;927,225000;1765905671169283;0
644;1765905671169284;1127,685000;1765905671169284;1127,685000;1765905671169284;0
645;1765905671169285;1328,145000;1765905671169285;1328,145000;1765905671169285;0
646;1765905671169286;1528,605000;1765905671169286;1528,605000;1765905671169286;0
647;1765905671169287;1729,065000;1765905671169287;1729,065000;1765905671169287;0
648;1765905671169288;1929,525000;1765905671169288;1929,525000;1765905671169288;0
649;1765905671169289;2129,985000;1765905671169289;2129,985000;1765905671169289;0
650;1765905671169290;2330,445000;1765905671169290;2330,445000;1765905671169290;0
651;1765905671169291;2530,905000;1765905671169291;2530,905000;1765905671169291;0
652;1765905671169292;2731,365000;1765905671169292;2731,365000;1765905671169292;0
653;1765905671173150;2731,365000;1765905671169292;2931,825000;1765905671173150;0
654;1765905671173152;3132,285000;1765905671173152;2931,825000;1765905671173150;0
655;1765905671173153;3132,285000;1765905671173152;3132,285000;1765905671173153;0
656;1765905671173155;3332,745000;1765905671173155;3132,285000;1765905671173153;0
657;1765905671173156;3332,745000;1765905671173155;3332,745000;1765905671173156;0
658;1765905671173157;3533,205000;1765905671173157;3533,205000;1765905671173157;0
659;1765905671173158;3733,665000;1765905671173158;3733,665000;1765905671173158;0
660;1765905671173159;3934,125000;1765905671173159;3934,125000;1765905671173159;0
661;1765905671173160;4134,585000;1765905671173160;4134,585000;1765905671173160;0
662;1765905671173161;4335,045000;1765905671173161;4335,045000;1765905671173161;0
663;1765905671173162;4535,505000;1765905671173162;4535,505000;1765905671173162;0
664;1765905671173163;4735,965000;1765905671173163;4735,965000;1765905671173163;0
665;1765905671173164;4936,425000;1765905671173164;4735,965000;1765905671173163;0
666;1765905671173165;5136,885000;1765905671173165;4936,425000;1765905671173165;0
667;1765905671173166;5337,345000;1765905671173166;5136,885000;1765905671173166;0
668;1765905671173167;5537,805000;1765905671173167;5337,345000;1765905671173167;0
669;1765905671173168;5738,265000;1765905671173168;5738,265000;1765905671173168;0
670;1765905671173169;5938,725000;1765905671173169;5938,725000;1765905671173169;0
671;1765905671173170;6139,185000;1765905671173170;6139,185000;1765905671173170;0
672;1765905671173171;6339,645000;1765905671173171;6339,645000;1765905671173171;0
673;1765905671173172;-6289,335000;1765905671173172;-6289,335000;1765905671173172;0
674;1765905671173173;-6088,875000;1765905671173173;-6088,875000;1765905671173173;0
675;1765905671225068;-6088,875000;1765905671173173;-5888,415000;1765905671225068;0
676;1765905671225071;-5687,955000;1765905671225071;-5687,955000;1765905671225071;0
677;1765905671225072;-5487,495000;1765905671225072;-5687,955000;1765905671225071;0
678;1765905671225073;-5487,495000;1765905671225072;-5487,495000;1765905671225073;0
679;1765905671225074;-5287,035000;1765905671225074;-5287,035000;1765905671225074;0
680;1765905671225075;-5086,575000;1765905671225075;-5086,575000;1765905671225075;0
681;1765905671225076;-4886,115000;1765905671225076;-5086,575000;1765905671225075;0
682;1765905671225077;-4685,655000;1765905671225077;-4886,115000;1765905671225077;0
683;1765905671225078;-4485,195000;1765905671225078;-4685,655000;1765905671225078;0
684;1765905671225079;-4485,195000;1765905671225078;-4485,195000;1765905671225079;0
685;1765905671225080;-4284,735000;1765905671225080;-4284,735000;1765905671225080;0
686;1765905671225081;-4084,275000;1765905671225081;-4084,275000;1765905671225081;0
687;1765905671225082;-3933,930000;1765905671225082;-4084,275000;1765905671225081;0
688;1765905671225083;-3683,355000;1765905671225083;-3883,815000;1765905671225083;0
689;1765905671225084;-3482,895000;1765905671225084;-3683,355000;1765905671225084;0
690;1765905671225085;-3282,435000;1765905671225085;-3482,895000;1765905671225085;0
691;1765905671225086;-3081,975000;1765905671225086;-3282,435000;1765905671225086;0
692;1765905671225087;-2881,515000;1765905671225087;-3081,975000;1765905671225087;0
693;1765905671225088;-2681,055000;1765905671225088;-2881,515000;1765905671225088;0
694;1765905671225090;-2681,055000;1765905671225088;-2681,055000;1765905671225090;0
695;1765905671225091;-2480,595000;1765905671225091;-2480,595000;1765905671225091;0
696;1765905671225092;-2280,135000;1765905671225092;-2280,135000;1765905671225092;0
697;1765905671225093;-2079,675000;1765905671225093;-2079,675000;1765905671225093;0
698;1765905671227200;-1678,755000;1765905671227200;-2079,675000;1765905671225093;0
699;1765905671227202;-1678,755000;1765905671227200;-1678,755000;1765905671227202;0
700;1765905671227203;-1478,295000;1765905671227203;-1678,755000;1765905671227202;0
701;1765905671227204;-1277,835000;1765905671227204;-1478,295000;1765905671227204;0
702;1765905671227205;-1277,835000;1765905671227204;-1277,835000;1765905671227205;0
703;1765905671227206;-1077,375000;1765905671227206;-1277,835000;1765905671227205;0
704;1765905671227207;-1077,375000;1765905671227206;-1077,375000;1765905671227207;0
705;1765905671227208;-876,915000;1765905671227208;-876,915000;1765905671227208;0
706;1765905671227209;-676,455000;1765905671227209;-676,455000;1765905671227209;0
707;1765905671227210;-475,995000;1765905671227210;-676,455000;1765905671227209;0
708;1765905671227211;-475,995000;1765905671227210;-475,995000;1765905671227211;0
709;1765905671227212;-275,535000;1765905671227212;-275,535000;1765905671227212;0
710;1765905671227213;-75,075000;1765905671227213;-75,075000;1765905671227213;0
711;1765905671227214;125,385000;1765905671227214;-75,075000;1765905671227213;0
712;1765905671227215;325,845000;1765905671227215;125,385000;1765905671227215;0
713;1765905671227216;325,845000;1765905671227215;325,845000;1765905671227216;0
714;1765905671227217;526,305000;1765905671227217;526,305000;1765905671227217;0
715;1765905671227218;726,765000;1765905671227218;726,765000;1765905671227218;0
716;1765905671227219;927,225000;1765905671227219;927,225000;1765905671227219;0
717;1765905671227220;1127,685000;1765905671227220;1127,685000;1765905671227220;0
718;1765905671227221;1328,145000;1765905671227221;1127,685000;1765905671227220;0
719;1765905671227222;1528,605000;1765905671227222;1328,145000;1765905671227222;0
720;1765905671227223;1729,065000;1765905671227223;1729,065000;1765905671227223;0
721;1765905671227224;1929,525000;1765905671227224;1729,065000;1765905671227223;0
722;1765905671227225;1929,525000;1765905671227224;1929,525000;1765905671227225;0
723;1765905671229990;1929,525000;1765905671227224;2129,985000;1765905671229990;0
724;1765905671229992;2330,445000;1765905671229992;2129,985000;1765905671229990;0
725;1765905671229993;2330,445000;1765905671229992;2330,445000;1765905671229993;0
726;1765905671229994;2530,905000;1765905671229994;2530,905000;1765905671229994;0
727;1765905671229995;2731,365000;1765905671229995;2731,365000;1765905671229995;0
728;1765905671229996;2931,825000;1765905671229996;2931,825000;1765905671229996;0
729;1765905671229997;3132,285000;1765905671229997;3132,285000;1765905671229997;0
730;1765905671229998;3332,745000;1765905671229998;3332,745000;1765905671229998;0
731;1765905671229999;3533,205000;1765905671229999;3533,205000;1765905671229999;0
732;1765905671230000;3733,665000;1765905671230000;3733,665000;1765905671230000;0
733;1765905671230001;3934,125000;1765905671230001;3934,125000;1765905671230001;0
734;1765905671230002;4134,585000;1765905671230002;4134,585000;1765905671230002;0
735;1765905671230003;4335,045000;1765905671230003;4134,585000;1765905671230002;0
736;1765905671230004;4535,505000;1765905671230004;4535,505000;1765905671230004;0
737;1765905671230005;4735,965000;1765905671230005;4735,965000;1765905671230005;0
738;1765905671230006;4936,425000;1765905671230006;4936,425000;1765905671230006;0
739;1765905671230008;5136,885000;1765905671230008;5136,885000;1765905671230008;0
740;1765905671230009;5337,345000;1765905671230009;5337,345000;1765905671230009;0
741;1765905671230010;5537,805000;1765905671230010;5537,805000;1765905671230010;0
742;1765905671230011;5738,265000;1765905671230011;5738,265000;1765905671230011;0
743;1765905671230012;5938,725000;1765905671230012;5938,725000;1765905671230012;0
744;1765905671285259;5938,725000;1765905671230012;6139,185000;1765905671285259;0
745;1765905671285261;6339,645000;1765905671285261;6139,185000;1765905671285259;0
746;1765905671285262;6339,645000;1765905671285261;6339,645000;1765905671285262;0
747;1765905671285263;-6289,335000;1765905671285263;-6289,335000;1765905671285263;0
748;1765905671285264;-6088,875000;1765905671285264;-6088,875000;1765905671285264;0
749;1765905671285265;-5888,415000;1765905671285265;-5888,415000;1765905671285265;0
750;1765905671285266;-5687,955000;1765905671285266;-5687,955000;1765905671285266;0
751;1765905671285267;-5487,495000;1765905671285267;-5487,495000;1765905671285267;0
752;1765905671285268;-5287,035000;1765905671285268;-5287,035000;1765905671285268;0
753;1765905671285269;-5086,575000;1765905671285269;-5086,575000;1765905671285269;0
754;1765905671285270;-4886,115000;1765905671285270;-4886,115000;1765905671285270;0
755;1765905671285271;-4685,655000;1765905671285271;-4685,655000;1765905671285271;0
756;1765905671285272;-4485,195000;1765905671285272;-4485,195000;1765905671285272;0
757;1765905671285273;-4284,735000;1765905671285273;-4284,735000;1765905671285273;0
758;1765905671285274;-3933,930000;1765905671285274;-4084,275000;1765905671285274;0
759;1765905671285275;-3933,930000;1765905671285274;-3883,815000;1765905671285275;0
760;1765905671285276;-3482,895000;1765905671285276;-3683,355000;1765905671285276;0
761;1765905671285277;-3482,895000;1765905671285276;-3482,895000;1765905671285277;0
762;1765905671285278;-3282,435000;1765905671285278;-3282,435000;1765905671285278;0
763;1765905671285279;-3081,975000;1765905671285279;-3081,975000;1765905671285279;0
764;1765905671285280;-2881,515000;1765905671285280;-2881,515000;1765905671285280;0
765;1765905671288902;-2480,595000;1765905671288902;-2881,515000;1765905671285280;0
766;1765905671288904;-2480,595000;1765905671288902;-2480,595000;1765905671288904;0
767;1765905671288905;-2280,135000;1765905671288905;-2480,595000;1765905671288904;0
768;1765905671288906;-2280,135000;1765905671288905;-2280,135000;1765905671288906;0
769;1765905671288907;-2079,675000;1765905671288907;-2079,675000;1765905671288907;0
770;1765905671288908;-1879,215000;1765905671288908;-1879,215000;1765905671288908;0
771;1765905671288909;-1678,755000;1765905671288909;-1879,215000;1765905671288908;0
772;1765905671288910;-1478,295000;1765905671288910;-1678,755000;1765905671288910;0
773;1765905671288911;-1478,295000;1765905671288910;-1478,295000;1765905671288911;0
774;1765905671288912;-1277,835000;1765905671288912;-1277,835000;1765905671288912;0
775;1765905671288913;-1077,375000;1765905671288913;-1077,375000;1765905671288913;0
776;1765905671288914;-876,915000;1765905671288914;-876,915000;1765905671288914;0
777;1765905671288915;-876,915000;1765905671288914;-3921,450000;1765905671288915;0
778;1765905671288916;-475,995000;1765905671288916;-676,455000;1765905671288916;0
779;1765905671288917;-275,535000;1765905671288917;-475,995000;1765905671288917;0
780;1765905671288918;-75,075000;1765905671288918;-275,535000;1765905671288918;0
781;1765905671288920;-75,075000;1765905671288918;-75,075000;1765905671288920;0
782;1765905671288921;125,385000;1765905671288921;125,385000;1765905671288921;0
783;1765905671288922;325,845000;1765905671288922;325,845000;1765905671288922;0
784;1765905671288923;526,305000;1765905671288923;526,305000;1765905671288923;0
785;1765905671288924;927,225000;1765905671288924;726,765000;1765905671288924;0
786;1765905671288925;1127,685000;1765905671288925;927,225000;1765905671288925;0
787;1765905671288926;1127,685000;1765905671288925;1127,685000;1765905671288926;0
788;1765905671290083;1127,685000;1765905671288925;1328,145000;1765905671290083;0
789;1765905671290085;1528,605000;1765905671290085;1528,605000;1765905671290085;0
790;1765905671290086;1729,065000;1765905671290086;1528,605000;1765905671290085;0
791;1765905671290087;1929,525000;1765905671290087;1729,065000;1765905671290087;0
792;1765905671290088;2129,985000;1765905671290088;1929,525000;1765905671290088;0
793;1765905671290089;2330,445000;1765905671290089;2129,985000;1765905671290089;0
794;1765905671290090;2330,445000;1765905671290089;2330,445000;1765905671290090;0
795;1765905671290091;2530,905000;1765905671290091;2530,905000;1765905671290091;0
796;1765905671290092;2731,365000;1765905671290092;2731,365000;1765905671290092;0
797;1765905671290093;2931,825000;1765905671290093;2931,825000;1765905671290093;0
798;1765905671290094;3132,285000;1765905671290094;3132,285000;1765905671290094;0
799;1765905671290095;3332,745000;1765905671290095;3332,745000;1765905671290095;0
800;1765905671290096;3533,205000;1765905671290096;3533,205000;1765905671290096;0
801;1765905671290097;3733,665000;1765905671290097;3533,205000;1765905671290096;0
802;1765905671290098;3934,125000;1765905671290098;3733,665000;1765905671290098;0
803;1765905671290099;4134,585000;1765905671290099;3934,125000;1765905671290099;0
804;1765905671290100;4335,045000;1765905671290100;4335,045000;1765905671290100;0
805;1765905671290101;4535,505000;1765905671290101;4535,505000;1765905671290101;0
806;1765905671290102;4735,965000;1765905671290102;4735,965000;1765905671290102;0
807;1765905671290103;4936,425000;1765905671290103;4936,425000;1765905671290103;0
808;1765905671290104;5136,885000;1765905671290104;5136,885000;1765905671290104;0
809;1765905671345167;5136,885000;1765905671290104;5337,345000;1765905671345167;0
810;1765905671345170;5537,805000;1765905671345170;5337,345000;1765905671345167;0
811;1765905671345171;5537,805000;1765905671345170;5537,805000;1765905671345171;0
812;1765905671345172;5738,265000;1765905671345172;5738,265000;1765905671345172;0
813;1765905671345174;5938,725000;1765905671345174;5938,725000;1765905671345174;0
814;1765905671345175;6139,185000;1765905671345175;5938,725000;1765905671345174;0
815;1765905671345176;6139,185000;1765905671345175;6139,185000;1765905671345176;0
816;1765905671345177;6339,645000;1765905671345177;6339,645000;1765905671345177;0
817;1765905671345178;-6289,335000;1765905671345178;-6289,335000;1765905671345178;0
818;1765905671345179;-6088,875000;1765905671345179;-6289,335000;1765905671345178;0
819;1765905671345180;-6088,875000;1765905671345179;-6088,875000;1765905671345180;0
820;1765905671345181;-5888,415000;1765905671345181;-5888,415000;1765905671345181;0
821;1765905671345182;-5687,955000;1765905671345182;-5888,415000;1765905671345181;0
822;1765905671345183;-5687,955000;1765905671345182;-5687,955000;1765905671345183;0
823;1765905671345184;-5487,495000;1765905671345184;-5487,495000;1765905671345184;0
824;1765905671345185;-5287,035000;1765905671345185;-5487,495000;1765905671345184;0
825;1765905671345186;-5086,575000;1765905671345186;-5287,035000;1765905671345186;0
826;1765905671345187;-5086,575000;1765905671345186;-5086,575000;1765905671345187;0
827;1765905671345188;-4886,115000;1765905671345188;-4886,115000;1765905671345188;0
828;1765905671345189;-4685,655000;1765905671345189;-4685,655000;1765905671345189;0
829;1765905671345192;-4485,195000;1765905671345192;-4485,195000;1765905671345192;0
830;1765905671345193;-4284,735000;1765905671345193;-4485,195000;1765905671345192;0
831;1765905671345194;-4284,735000;1765905671345193;-4284,735000;1765905671345194;0
832;1765905671345195;-4084,275000;1765905671345195;-4084,275000;1765905671345195;0
833;1765905671345196;-3933,930000;1765905671345196;-4084,275000;1765905671345195;0
834;1765905671345197;-3933,930000;1765905671345196;-3883,815000;1765905671345197;0
835;1765905671345198;-3683,355000;1765905671345198;-3683,355000;1765905671345198;0
836;1765905671347444;-3282,435000;1765905671347444;-3683,355000;1765905671345198;0
837;1765905671347446;-3282,435000;1765905671347444;-3282,435000;1765905671347446;0
838;1765905671347447;-3081,975000;1765905671347447;-3282,435000;1765905671347446;0
839;1765905671347448;-3081,975000;1765905671347447;-3081,975000;1765905671347448;0
840;1765905671347449;-2881,515000;1765905671347449;-3081,975000;1765905671347448;0
841;1765905671347450;-2881,515000;1765905671347449;-2881,515000;1765905671347450;0
842;1765905671347451;-2681,055000;1765905671347451;-2681,055000;1765905671347451;0
843;1765905671347452;-2480,595000;1765905671347452;-2681,055000;1765905671347451;0
844;1765905671347453;-2480,595000;1765905671347452;-2480,595000;1765905671347453;0
845;1765905671347454;-2280,135000;1765905671347454;-2480,595000;1765905671347453;0
846;1765905671347455;-2079,675000;1765905671347455;-2280,135000;1765905671347455;0
847;1765905671347456;-2079,675000;1765905671347455;-2079,675000;1765905671347456;0
848;1765905671347457;-1879,215000;1765905671347457;-2079,675000;1765905671347456;0
849;1765905671347458;-1879,215000;1765905671347457;-1879,215000;1765905671347458;0
850;1765905671347459;-1678,755000;1765905671347459;-1678,755000;1765905671347459;0
851;1765905671347460;-1478,295000;1765905671347460;-1678,755000;1765905671347459;0
852;1765905671347461;-1277,835000;1765905671347461;-1478,295000;1765905671347461;0
853;1765905671347462;-1277,835000;1765905671347461;-1277,835000;1765905671347462;0
854;1765905671347463;-1077,375000;1765905671347463;-1077,375000;1765905671347463;0
855;1765905671347464;-876,915000;1765905671347464;-876,915000;1765905671347464;0
856;1765905671347465;-676,455000;1765905671347465;-676,455000;1765905671347465;0
857;1765905671347466;-475,995000;1765905671347466;-676,455000;1765905671347465;0
858;1765905671347467;-475,995000;1765905671347466;-475,995000;1765905671347467;0
859;1765905671347468;-275,535000;1765905671347468;-275,535000;1765905671347468;0
860;1765905671347469;-75,075000;1765905671347469;-75,075000;1765905671347469;0
861;1765905671347470;125,385000;1765905671347470;-75,075000;1765905671347469;0
862;1765905671347471;125,385000;1765905671347470;125,385000;1765905671347471;0
863;1765905671347472;325,845000;1765905671347472;325,845000;1765905671347472;0
864;1765905671349989;325,845000;1765905671347472;526,305000;1765905671349989;0
865;1765905671349991;726,765000;1765905671349991;526,305000;1765905671349989;0
866;1765905671349992;726,765000;1765905671349991;726,765000;1765905671349992;0
867;1765905671349993;927,225000;1765905671349993;726,765000;1765905671349992;0
868;1765905671349994;927,225000;1765905671349993;927,225000;1765905671349994;0
869;1765905671349995;1127,685000;1765905671349995;1127,685000;1765905671349995;0
870;1765905671349996;1328,145000;1765905671349996;1328,145000;1765905671349996;0
871;1765905671349997;1528,605000;1765905671349997;1328,145000;1765905671349996;0
872;1765905671349998;1729,065000;1765905671349998;1528,605000;1765905671349998;0
873;1765905671349999;1729,065000;1765905671349998;1729,065000;1765905671349999;0
874;1765905671350000;1929,525000;1765905671350000;1929,525000;1765905671350000;0
875;1765905671350001;2129,985000;1765905671350001;2129,985000;1765905671350001;0
876;1765905671350002;2330,445000;1765905671350002;2129,985000;1765905671350001;0
877;1765905671350003;2330,445000;1765905671350002;2330,445000;1765905671350003;0
878;1765905671350004;2530,905000;1765905671350004;2530,905000;1765905671350004;0
879;1765905671350005;2731,365000;1765905671350005;2731,365000;1765905671350005;0
880;1765905671350006;2931,825000;1765905671350006;2731,365000;1765905671350005;0
881;1765905671350007;3132,285000;1765905671350007;2931,825000;1765905671350007;0
882;1765905671350008;3132,285000;1765905671350007;3132,285000;1765905671350008;0
883;1765905671350009;3332,745000;1765905671350009;3332,745000;1765905671350009;0
884;1765905671350010;3533,205000;1765905671350010;3332,745000;1765905671350009;0
885;1765905671350011;3533,205000;1765905671350010;3533,205000;1765905671350011;0
886;1765905671350012;3733,665000;1765905671350012;3733,665000;1765905671350012;0
887;1765905671350013;3934,125000;1765905671350013;3733,665000;1765905671350012;0
888;1765905671350015;3934,125000;1765905671350013;3934,125000;1765905671350015;0
889;1765905671350016;4134,585000;1765905671350016;3934,125000;1765905671350015;0
890;1765905671350017;4335,045000;1765905671350017;4134,585000;1765905671350017;0
891;1765905671350018;4335,045000;1765905671350017;4335,045000;1765905671350018;0
892;1765905671407823;4335,045000;1765905671350017;4535,505000;1765905671407823;0
893;1765905671407825;4735,965000;1765905671407825;4535,505000;1765905671407823;0
894;1765905671407826;4735,965000;1765905671407825;4735,965000;1765905671407826;0
895;1765905671407827;4936,425000;1765905671407827;4735,965000;1765905671407826;0
896;1765905671407828;4936,425000;1765905671407827;4936,425000;1765905671407828;0
897;1765905671407829;5136,885000;1765905671407829;5136,885000;1765905671407829;0
898;1765905671407830;5337,345000;1765905671407830;5136,885000;1765905671407829;0
899;1765905671407831;5337,345000;1765905671407830;5337,345000;1765905671407831;0
900;1765905671407832;5537,805000;1765905671407832;5537,805000;1765905671407832;0
901;1765905671407833;5738,265000;1765905671407833;5738,265000;1765905671407833;0
902;1765905671407834;5938,725000;1765905671407834;5938,725000;1765905671407834;0
903;1765905671407835;6139,185000;1765905671407835;5938,725000;1765905671407834;0
904;1765905671407836;6139,185000;1765905671407835;6139,185000;1765905671407836;0
905;1765905671407837;6339,645000;1765905671407837;6339,645000;1765905671407837;0
906;1765905671407838;-6289,335000;1765905671407838;6339,645000;1765905671407837;0
907;1765905671407839;-6289,335000;1765905671407838;-6289,335000;1765905671407839;0
908;1765905671407840;-6088,875000;1765905671407840;-6088,875000;1765905671407840;0
909;1765905671407841;-5888,415000;1765905671407841;-6088,875000;1765905671407840;0
910;1765905671407842;-5687,955000;1765905671407842;-5888,415000;1765905671407842;0
911;1765905671407843;-5487,495000;1765905671407843;-5687,955000;1765905671407843;0
912;1765905671407844;-5287,035000;1765905671407844;-5487,495000;1765905671407844;0
913;1765905671407845;-5287,035000;1765905671407844;-5287,035000;1765905671407845;0
914;1765905671407846;-5086,575000;1765905671407846;-5086,575000;1765905671407846;0
915;1765905671407847;-4886,115000;1765905671407847;-4886,115000;1765905671407847;0
916;1765905671407848;-4685,655000;1765905671407848;-4685,655000;1765905671407848;0
917;1765905671407849;-4485,195000;1765905671407849;-4485,195000;1765905671407849;0
918;1765905671407971;-4084,275000;1765905671407971;-4485,195000;1765905671407849;0
919;1765905671407973;-4084,275000;1765905671407971;-4084,275000;1765905671407973;0
920;1765905671407974;-3933,930000;1765905671407974;-3883,815000;1765905671407974;0
921;1765905671407975;-3683,355000;1765905671407975;-3883,815000;1765905671407974;0
922;1765905671407976;-3683,355000;1765905671407975;-3683,355000;1765905671407976;0
923;1765905671407977;-3482,895000;1765905671407977;-3482,895000;1765905671407977;0
924;1765905671407978;-3282,435000;1765905671407978;-3282,435000;1765905671407978;0
925;1765905671407979;-3081,975000;1765905671407979;-3081,975000;1765905671407979;0
926;1765905671407980;-2881,515000;1765905671407980;-3081,975000;1765905671407979;0
927;1765905671407981;-2681,055000;1765905671407981;-2881,515000;1765905671407981;0
928;1765905671407982;-2480,595000;1765905671407982;-2681,055000;1765905671407982;0
929;1765905671407983;-2480,595000;1765905671407982;-2480,595000;1765905671407983;0
930;1765905671407984;-2280,135000;1765905671407984;-2280,135000;1765905671407984;0
931;1765905671407985;-2079,675000;1765905671407985;-2079,675000;1765905671407985;0
932;1765905671407986;-1879,215000;1765905671407986;-1879,215000;1765905671407986;0
933;1765905671407987;-1678,755000;1765905671407987;-1678,755000;1765905671407987;0
934;1765905671407988;-1478,295000;1765905671407988;-1478,295000;1765905671407988;0
935;1765905671407989;-1277,835000;1765905671407989;-1277,835000;1765905671407989;0
936;1765905671407990;-1077,375000;1765905671407990;-1077,375000;1765905671407990;0
937;1765905671407991;-876,915000;1765905671407991;-3921,450000;1765905671407991;0
938;1765905671407992;-475,995000;1765905671407992;-676,455000;1765905671407992;0
939;1765905671407993;-475,995000;1765905671407992;-475,995000;1765905671407993;0
940;1765905671409919;-475,995000;1765905671407992;-275,535000;1765905671409919;0
941;1765905671409921;-75,075000;1765905671409921;-75,075000;1765905671409921;0
942;1765905671409922;125,385000;1765905671409922;125,385000;1765905671409922;0
943;1765905671409923;325,845000;1765905671409923;325,845000;1765905671409923;0
944;1765905671409926;526,305000;1765905671409926;526,305000;1765905671409926;0
945;1765905671409927;726,765000;1765905671409927;526,305000;1765905671409926;0
946;1765905671409928;927,225000;1765905671409928;726,765000;1765905671409928;0
947;1765905671409929;1127,685000;1765905671409929;927,225000;1765905671409929;0
948;1765905671409930;1127,685000;1765905671409929;1127,685000;1765905671409930;0
949;1765905671409931;1528,605000;1765905671409931;1328,145000;1765905671409931;0
950;1765905671409932;1729,065000;1765905671409932;1528,605000;1765905671409932;0
951;1765905671409933;1929,525000;1765905671409933;1729,065000;1765905671409933;0
952;1765905671409934;1929,525000;1765905671409933;1929,525000;1765905671409934;0
953;1765905671409935;2129,985000;1765905671409935;2129,985000;1765905671409935;0
954;1765905671409936;2330,445000;1765905671409936;2330,445000;1765905671409936;0
955;1765905671409937;2530,905000;1765905671409937;2530,905000;1765905671409937;0
956;1765905671409938;2731,365000;1765905671409938;2731,365000;1765905671409938;0
957;1765905671409939;2931,825000;1765905671409939;2931,825000;1765905671409939;0
958;1765905671409940;3132,285000;1765905671409940;3132,285000;1765905671409940;0
959;1765905671409941;3332,745000;1765905671409941;3132,285000;1765905671409940;0
960;1765905671409942;3533,205000;1765905671409942;3332,745000;1765905671409942;0
961;1765905671409943;3533,205000;1765905671409942;3533,205000;1765905671409943;0
962;1765905671465571;3533,205000;1765905671409942;3733,665000;1765905671465571;0
963;1765905671465576;3934,125000;1765905671465576;3934,125000;1765905671465576;0
964;1765905671465578;4134,585000;1765905671465578;3934,125000;1765905671465576;0
965;1765905671465579;4134,585000;1765905671465578;4134,585000;1765905671465579;0
966;1765905671465580;4335,045000;1765905671465580;4335,045000;1765905671465580;0
967;1765905671465581;4535,505000;1765905671465581;4335,045000;1765905671465580;0
968;1765905671465582;4535,505000;1765905671465581;4535,505000;1765905671465582;0
969;1765905671465583;4735,965000;1765905671465583;4735,965000;1765905671465583;0
970;1765905671465585;4936,425000;1765905671465585;4936,425000;1765905671465585;0
971;1765905671465586;5136,885000;1765905671465586;4936,425000;1765905671465585;0
972;1765905671465587;5136,885000;1765905671465586;5136,885000;1765905671465587;0
973;1765905671465588;5337,345000;1765905671465588;5136,885000;1765905671465587;0
974;1765905671465589;5337,345000;1765905671465588;5337,345000;1765905671465589;0
975;1765905671465590;5537,805000;1765905671465590;5537,805000;1765905671465590;0
976;1765905671465591;5738,265000;1765905671465591;5537,805000;1765905671465590;0
977;1765905671465592;5738,265000;1765905671465591;5738,265000;1765905671465592;0
978;1765905671465593;5938,725000;1765905671465593;5938,725000;1765905671465593;0
979;1765905671465595;6139,185000;1765905671465595;6139,185000;1765905671465595;0
980;1765905671465596;6339,645000;1765905671465596;6139,185000;1765905671465595;0
981;1765905671465597;6339,645000;1765905671465596;6339,645000;1765905671465597;0
982;1765905671465598;-6289,335000;1765905671465598;-6289,335000;1765905671465598;0
983;1765905671465600;-6088,875000;1765905671465600;-6088,875000;1765905671465600;0
984;1765905671465601;-5888,415000;1765905671465601;-6088,875000;1765905671465600;0
985;1765905671465602;-5888,415000;1765905671465601;-5888,415000;1765905671465602;0
986;1765905671465603;-5687,955000;1765905671465603;-5687,955000;1765905671465603;0
987;1765905671465604;-5487,495000;1765905671465604;-5687,955000;1765905671465603;0
988;1765905671465605;-5487,495000;1765905671465604;-5487,495000;1765905671465605;0
989;1765905671465606;-5287,035000;1765905671465606;-5487,495000;1765905671465605;0
990;1765905671465607;-5287,035000;1765905671465606;-5287,035000;1765905671465607;0
991;1765905671473815;-4886,115000;1765905671473815;-5287,035000;1765905671465607;0
992;1765905671473817;-4886,115000;1765905671473815;-4886,115000;1765905671473817;0
993;1765905671473818;-4685,655000;1765905671473818;-4886,115000;1765905671473817;0
994;1765905671473819;-4485,195000;1765905671473819;-4685,655000;1765905671473819;0
995;1765905671473820;-4284,735000;1765905671473820;-4485,195000;1765905671473820;0
996;1765905671473821;-4284,735000;1765905671473820;-4284,735000;1765905671473821;0
997;1765905671473822;-4084,275000;1765905671473822;-4084,275000;1765905671473822;0
998;1765905671473823;-3933,930000;1765905671473823;-3883,815000;1765905671473823;0
999;1765905671473824;-3683,355000;1765905671473824;-3683,355000;1765905671473824;0
1000;1765905671473825;-3482,895000;1765905671473825;-3482,895000;1765905671473825;0
1001;1765905671473826;-3282,435000;1765905671473826;-3282,435000;1765905671473826;0
1002;1765905671473827;-3081,975000;1765905671473827;-3282,435000;1765905671473826;0
1003;1765905671473828;-2881,515000;1765905671473828;-3081,975000;1765905671473828;0
1004;1765905671473831;-2681,055000;1765905671473831;-2881,515000;1765905671473831;0
1005;1765905671473832;-2681,055000;1765905671473831;-2681,055000;1765905671473832;0
1006;1765905671473833;-2480,595000;1765905671473833;-2480,595000;1765905671473833;0
1007;1765905671473834;-2280,135000;1765905671473834;-2280,135000;1765905671473834;0
1008;1765905671473835;-2079,675000;1765905671473835;-2079,675000;1765905671473835;0
1009;1765905671473836;-1879,215000;1765905671473836;-1879,215000;1765905671473836;0
1010;1765905671473837;-1678,755000;1765905671473837;-1678,755000;1765905671473837;0
1011;1765905671473838;-1478,295000;1765905671473838;-1478,295000;1765905671473838;0
1012;1765905671473839;-1277,835000;1765905671473839;-1277,835000;1765905671473839;0
1013;1765905671474544;-1277,835000;1765905671473839;-1077,375000;1765905671474544;0
1014;1765905671474546;-876,915000;1765905671474546;-1077,375000;1765905671474544;0
1015;1765905671474547;-876,915000;1765905671474546;-876,915000;1765905671474547;0
1016;1765905671474548;-876,915000;1765905671474546;-676,455000;1765905671474548;0
1017;1765905671474549;-475,995000;1765905671474549;-676,455000;1765905671474548;0
1018;1765905671474550;-275,535000;1765905671474550;-475,995000;1765905671474550;0
1019;1765905671474551;-275,535000;1765905671474550;-275,535000;1765905671474551;0
1020;1765905671474552;-75,075000;1765905671474552;-75,075000;1765905671474552;0
1021;1765905671474553;125,385000;1765905671474553;125,385000;1765905671474553;0
1022;1765905671474554;325,845000;1765905671474554;325,845000;1765905671474554;0
1023;1765905671474555;526,305000;1765905671474555;325,845000;1765905671474554;0
1024;1765905671474556;726,765000;1765905671474556;526,305000;1765905671474556;0
1025;1765905671474557;726,765000;1765905671474556;726,765000;1765905671474557;0
1026;1765905671474558;927,225000;1765905671474558;927,225000;1765905671474558;0
1027;1765905671474559;1127,685000;1765905671474559;1127,685000;1765905671474559;0
1028;1765905671474560;1328,145000;1765905671474560;1328,145000;1765905671474560;0
1029;1765905671474561;1528,605000;1765905671474561;1528,605000;1765905671474561;0
1030;1765905671474562;1729,065000;1765905671474562;1729,065000;1765905671474562;0
1031;1765905671474563;1929,525000;1765905671474563;1929,525000;1765905671474563;0
1032;1765905671474564;2129,985000;1765905671474564;2129,985000;1765905671474564;0
1033;1765905671474565;2330,445000;1765905671474565;2330,445000;1765905671474565;0
1034;1765905671474566;2530,905000;1765905671474566;2530,905000;1765905671474566;0
1035;1765905671474567;2731,365000;1765905671474567;2731,365000;1765905671474567;0
1036;1765905671532883;2731,365000;1765905671474567;2931,825000;1765905671532883;0
1037;1765905671532889;3132,285000;1765905671532889;2931,825000;1765905671532883;0
1038;1765905671532890;3132,285000;1765905671532889;3132,285000;1765905671532890;0
1039;1765905671532892;3332,745000;1765905671532892;3132,285000;1765905671532890;0
1040;1765905671532893;3332,745000;1765905671532892;3332,745000;1765905671532893;0
1041;1765905671532895;3533,205000;1765905671532895;3533,205000;1765905671532895;0
1042;1765905671532897;3733,665000;1765905671532897;3533,205000;1765905671532895;0
1043;1765905671532898;3733,665000;1765905671532897;3733,665000;1765905671532898;0
1044;1765905671532900;3934,125000;1765905671532900;3934,125000;1765905671532900;0
1045;1765905671532902;4134,585000;1765905671532902;3934,125000;1765905671532900;0
1046;1765905671532903;4134,585000;1765905671532902;4134,585000;1765905671532903;0
1047;1765905671532904;4335,045000;1765905671532904;4134,585000;1765905671532903;0
1048;1765905671532905;4335,045000;1765905671532904;4335,045000;1765905671532905;0
1049;1765905671532906;4535,505000;1765905671532906;4335,045000;1765905671532905;0
1050;1765905671532907;4535,505000;1765905671532906;4535,505000;1765905671532907;0
1051;1765905671532909;4735,965000;1765905671532909;4535,505000;1765905671532907;0
1052;1765905671532910;4735,965000;1765905671532909;4735,965000;1765905671532910;0
1053;1765905671532911;4936,425000;1765905671532911;4735,965000;1765905671532910;0
1054;1765905671532912;4936,425000;1765905671532911;4936,425000;1765905671532912;0
1055;1765905671532913;5136,885000;1765905671532913;4936,425000;1765905671532912;0
1056;1765905671532914;5136,885000;1765905671532913;5136,885000;1765905671532914;0
1057;1765905671532915;5337,345000;1765905671532915;5136,885000;1765905671532914;0
1058;1765905671532916;5337,345000;1765905671532915;5337,345000;1765905671532916;0
1059;1765905671532918;5537,805000;1765905671532918;5337,345000;1765905671532916;0
1060;1765905671532919;5537,805000;1765905671532918;5537,805000;1765905671532919;0
1061;1765905671532920;5738,265000;1765905671532920;5537,805000;1765905671532919;0
1062;1765905671532921;5738,265000;1765905671532920;5738,265000;1765905671532921;0
1063;1765905671532922;5938,725000;1765905671532922;5738,265000;1765905671532921;0
1064;1765905671532923;5938,725000;1765905671532922;5938,725000;1765905671532923;0
1065;1765905671532924;6139,185000;1765905671532924;5938,725000;1765905671532923;0
1066;1765905671532925;6139,185000;1765905671532924;6139,185000;1765905671532925;0
1067;1765905671532927;6339,645000;1765905671532927;6139,185000;1765905671532925;0
1068;1765905671532928;6339,645000;1765905671532927;6339,645000;1765905671532928;0
1069;1765905671532929;-6289,335000;1765905671532929;6339,645000;1765905671532928;0
1070;1765905671532930;-6289,335000;1765905671532929;-6289,335000;1765905671532930;0
1071;1765905671532931;-6088,875000;1765905671532931;-6289,335000;1765905671532930;0
1072;1765905671532932;-6088,875000;1765905671532931;-6088,875000;1765905671532932;0
1073;1765905671540085;-5687,955000;1765905671540085;-6088,875000;1765905671532932;0
1074;1765905671540092;-5687,955000;1765905671540085;-5687,955000;1765905671540092;0
1075;1765905671540095;-5487,495000;1765905671540095;-5687,955000;1765905671540092;0
1076;1765905671540096;-5487,495000;1765905671540095;-5487,495000;1765905671540096;0
1077;1765905671540099;-5287,035000;1765905671540099;-5487,495000;1765905671540096;0
1078;1765905671540100;-5287,035000;1765905671540099;-5287,035000;1765905671540100;0
1079;1765905671540102;-5086,575000;1765905671540102;-5287,035000;1765905671540100;0
1080;1765905671540104;-5086,575000;1765905671540102;-5086,575000;1765905671540104;0
1081;1765905671540111;-4886,115000;1765905671540111;-5086,575000;1765905671540104;0
1082;1765905671540112;-4886,115000;1765905671540111;-4886,115000;1765905671540112;0
1083;1765905671540115;-4685,655000;1765905671540115;-4886,115000;1765905671540112;0
1084;1765905671540116;-4685,655000;1765905671540115;-4685,655000;1765905671540116;0
1085;1765905671540118;-4485,195000;1765905671540118;-4685,655000;1765905671540116;0
1086;1765905671540119;-4485,195000;1765905671540118;-4485,195000;1765905671540119;0
1087;1765905671540121;-4284,735000;1765905671540121;-4485,195000;1765905671540119;0
1088;1765905671540122;-4284,735000;1765905671540121;-4284,735000;1765905671540122;0
1089;1765905671540124;-4084,275000;1765905671540124;-4284,735000;1765905671540122;0
1090;1765905671540125;-4084,275000;1765905671540124;-4084,275000;1765905671540125;0
1091;1765905671540127;-3933,930000;1765905671540127;-4084,275000;1765905671540125;0
1092;1765905671540128;-3933,930000;1765905671540127;-3883,815000;1765905671540128;0
1093;1765905671540131;-3683,355000;1765905671540131;-3883,815000;1765905671540128;0
1094;1765905671540132;-3683,355000;1765905671540131;-3683,355000;1765905671540132;0
1095;1765905671540134;-3482,895000;1765905671540134;-3683,355000;1765905671540132;0
1096;1765905671540135;-3482,895000;1765905671540134;-3482,895000;1765905671540135;0
1097;1765905671540137;-3282,435000;1765905671540137;-3482,895000;1765905671540135;0
1098;1765905671540138;-3282,435000;1765905671540137;-3282,435000;1765905671540138;0
1099;1765905671540140;-3081,975000;1765905671540140;-3282,435000;1765905671540138;0
1100;1765905671540141;-3081,975000;1765905671540140;-3081,975000;1765905671540141;0
1101;1765905671540143;-2881,515000;1765905671540143;-3081,975000;1765905671540141;0
1102;1765905671540144;-2881,515000;1765905671540143;-2881,515000;1765905671540144;0
1103;1765905671540146;-2681,055000;1765905671540146;-2881,515000;1765905671540144;0
1104;1765905671540147;-2681,055000;1765905671540146;-2681,055000;1765905671540147;0
1105;1765905671540149;-2480,595000;1765905671540149;-2681,055000;1765905671540147;0
1106;1765905671540150;-2480,595000;1765905671540149;-2480,595000;1765905671540150;0
1107;1765905671540152;-2280,135000;1765905671540152;-2480,595000;1765905671540150;0
1108;1765905671540153;-2280,135000;1765905671540152;-2280,135000;1765905671540153;0
1109;1765905671540155;-2079,675000;1765905671540155;-2280,135000;1765905671540153;0
1110;1765905671540156;-2079,675000;1765905671540155;-2079,675000;1765905671540156;0
1111;1765905671545160;-2079,675000;1765905671540155;-1879,215000;1765905671545160;0
1112;1765905671545165;-1678,755000;1765905671545165;-1879,215000;1765905671545160;0
1113;1765905671545166;-1678,755000;1765905671545165;-1678,755000;1765905671545166;0
1114;1765905671545168;-1478,295000;1765905671545168;-1678,755000;1765905671545166;0
1115;1765905671545169;-1478,295000;1765905671545168;-1478,295000;1765905671545169;0
1116;1765905671545171;-1277,835000;1765905671545171;-1478,295000;1765905671545169;0
1117;1765905671545172;-1277,835000;1765905671545171;-1277,835000;1765905671545172;0
1118;1765905671545174;-1077,375000;1765905671545174;-1277,835000;1765905671545172;0
1119;1765905671545175;-1077,375000;1765905671545174;-1077,375000;1765905671545175;0
1120;1765905671545177;-876,915000;1765905671545177;-1077,375000;1765905671545175;0
1121;1765905671545178;-876,915000;1765905671545177;-876,915000;1765905671545178;0
1122;1765905671545180;-876,915000;1765905671545177;-3921,450000;1765905671545180;0
1123;1765905671545181;-876,915000;1765905671545177;-676,455000;1765905671545181;0
1124;1765905671545183;-475,995000;1765905671545183;-676,455000;1765905671545181;0
1125;1765905671545184;-475,995000;1765905671545183;-475,995000;1765905671545184;0
1126;1765905671545186;-275,535000;1765905671545186;-475,995000;1765905671545184;0
1127;1765905671545187;-275,535000;1765905671545186;-275,535000;1765905671545187;0
1128;1765905671545189;-75,075000;1765905671545189;-75,075000;1765905671545189;0
1129;1765905671545191;125,385000;1765905671545191;-75,075000;1765905671545189;0
1130;1765905671545192;125,385000;1765905671545191;125,385000;1765905671545192;0
1131;1765905671545194;325,845000;1765905671545194;125,385000;1765905671545192;0
1132;1765905671545195;325,845000;1765905671545194;325,845000;1765905671545195;0
1133;1765905671545196;526,305000;1765905671545196;325,845000;1765905671545195;0
1134;1765905671545197;526,305000;1765905671545196;526,305000;1765905671545197;0
1135;1765905671545199;726,765000;1765905671545199;526,305000;1765905671545197;0
1136;1765905671545200;726,765000;1765905671545199;726,765000;1765905671545200;0
1137;1765905671545201;927,225000;1765905671545201;726,765000;1765905671545200;0
1138;1765905671545202;927,225000;1765905671545201;927,225000;1765905671545202;0
1139;1765905671545204;1127,685000;1765905671545204;927,225000;1765905671545202;0
1140;1765905671545205;1127,685000;1765905671545204;1127,685000;1765905671545205;0
1141;1765905671545207;1328,145000;1765905671545207;1328,145000;1765905671545207;0
1142;1765905671545209;1528,605000;1765905671545209;1328,145000;1765905671545207;0
1143;1765905671545210;1528,605000;1765905671545209;1528,605000;1765905671545210;0
1144;1765905671545211;1729,065000;1765905671545211;1528,605000;1765905671545210;0
1145;1765905671545212;1729,065000;1765905671545211;1729,065000;1765905671545212;0
1146;1765905671545214;1929,525000;1765905671545214;1929,525000;1765905671545214;0
1147;1765905671548969;1929,525000;1765905671545214;2129,985000;1765905671548969;0
1148;1765905671548974;2330,445000;1765905671548974;2129,985000;1765905671548969;0
1149;1765905671548975;2330,445000;1765905671548974;2330,445000;1765905671548975;0
1150;1765905671548977;2530,905000;1765905671548977;2330,445000;1765905671548975;0
1151;1765905671548978;2530,905000;1765905671548977;2530,905000;1765905671548978;0
1152;1765905671548980;2731,365000;1765905671548980;2530,905000;1765905671548978;0
1153;1765905671548981;2731,365000;1765905671548980;2731,365000;1765905671548981;0
1154;1765905671548983;2931,825000;1765905671548983;2731,365000;1765905671548981;0
1155;1765905671548984;2931,825000;1765905671548983;2931,825000;1765905671548984;0
1156;1765905671548986;3132,285000;1765905671548986;2931,825000;1765905671548984;0
1157;1765905671548987;3132,285000;1765905671548986;3132,285000;1765905671548987;0
1158;1765905671548989;3332,745000;1765905671548989;3132,285000;1765905671548987;0
1159;1765905671548990;3332,745000;1765905671548989;3332,745000;1765905671548990;0
1160;1765905671548992;3533,205000;1765905671548992;3332,745000;1765905671548990;0
1161;1765905671548993;3533,205000;1765905671548992;3533,205000;1765905671548993;0
1162;1765905671548995;3733,665000;1765905671548995;3533,205000;1765905671548993;0
1163;1765905671548996;3733,665000;1765905671548995;3733,665000;1765905671548996;0
1164;1765905671548998;3934,125000;1765905671548998;3733,665000;1765905671548996;0
1165;1765905671548999;3934,125000;1765905671548998;3934,125000;1765905671548999;0
1166;1765905671549000;4134,585000;1765905671549000;3934,125000;1765905671548999;0
1167;1765905671549002;4134,585000;1765905671549000;4134,585000;1765905671549002;0
1168;1765905671549003;4335,045000;1765905671549003;4134,585000;1765905671549002;0
1169;1765905671549004;4335,045000;1765905671549003;4335,045000;1765905671549004;0
1170;1765905671549006;4535,505000;1765905671549006;4335,045000;1765905671549004;0
1171;1765905671549007;4535,505000;1765905671549006;4535,505000;1765905671549007;0
1172;1765905671549008;4735,965000;1765905671549008;4535,505000;1765905671549007;0
1173;1765905671549009;4735,965000;1765905671549008;4735,965000;1765905671549009;0
1174;1765905671549011;4936,425000;1765905671549011;4735,965000;1765905671549009;0
1175;1765905671549012;4936,425000;1765905671549011;4936,425000;1765905671549012;0
1176;1765905671549013;5136,885000;1765905671549013;4936,425000;1765905671549012;0
1177;1765905671549014;5136,885000;1765905671549013;5136,885000;1765905671549014;0
1178;1765905671549016;5337,345000;1765905671549016;5136,885000;1765905671549014;0
1179;1765905671549017;5337,345000;1765905671549016;5337,345000;1765905671549017;0
1180;1765905671549019;5537,805000;1765905671549019;5537,805000;1765905671549019;0
1181;1765905671549021;5738,265000;1765905671549021;5537,805000;1765905671549019;0
1182;1765905671549026;5738,265000;1765905671549021;5738,265000;1765905671549026;0
1183;1765905671549028;5938,725000;1765905671549028;5738,265000;1765905671549026;0
1184;1765905671549029;5938,725000;1765905671549028;5938,725000;1765905671549029;0
1185;1765905671594824;6339,645000;1765905671594824;5938,725000;1765905671549029;0
1186;1765905671594825;6339,645000;1765905671594824;6339,645000;1765905671594825;0
1187;1765905671594826;-6289,335000;1765905671594826;6339,645000;1765905671594825;0
1188;1765905671594827;-6088,875000;1765905671594827;-6289,335000;1765905671594827;0
1189;1765905671594828;-5888,415000;1765905671594828;-6088,875000;1765905671594828;0
1190;1765905671594829;-5687,955000;1765905671594829;-5888,415000;1765905671594829;0
1191;1765905671594830;-5487,495000;1765905671594830;-5687,955000;1765905671594830;0
1192;1765905671594831;-5287,035000;1765905671594831;-5487,495000;1765905671594831;0
1193;1765905671594832;-5086,575000;1765905671594832;-5287,035000;1765905671594832;0
1194;1765905671594833;-4886,115000;1765905671594833;-5086,575000;1765905671594833;0
1195;1765905671594834;-4886,115000;1765905671594833;-4886,115000;1765905671594834;0
1196;1765905671594835;-4685,655000;1765905671594835;-4685,655000;1765905671594835;0
1197;1765905671594836;-4485,195000;1765905671594836;-4485,195000;1765905671594836;0
1198;1765905671594837;-4284,735000;1765905671594837;-4485,195000;1765905671594836;0
1199;1765905671594838;-4084,275000;1765905671594838;-4284,735000;1765905671594838;0
1200;1765905671594839;-4084,275000;1765905671594838;-4084,275000;1765905671594839;0
1201;1765905671594840;-3933,930000;1765905671594840;-3883,815000;1765905671594840;0
1202;1765905671594841;-3683,355000;1765905671594841;-3683,355000;1765905671594841;0
1203;1765905671594842;-3482,895000;1765905671594842;-3482,895000;1765905671594842;0
1204;1765905671594843;-3282,435000;1765905671594843;-3282,435000;1765905671594843;0
1205;1765905671594844;-3081,975000;1765905671594844;-3081,975000;1765905671594844;0
1206;1765905671594845;-2881,515000;1765905671594845;-2881,515000;1765905671594845;0
1207;1765905671598007;-2480,595000;1765905671598007;-2881,515000;1765905671594845;0
1208;1765905671598008;-2480,595000;1765905671598007;-2480,595000;1765905671598008;0
1209;1765905671598009;-2280,135000;1765905671598009;-2480,595000;1765905671598008;0
1210;1765905671598010;-2280,135000;1765905671598009;-2280,135000;1765905671598010;0
1211;1765905671598011;-2079,675000;1765905671598011;-2079,675000;1765905671598011;0
1212;1765905671598012;-1879,215000;1765905671598012;-1879,215000;1765905671598012;0
1213;1765905671598013;-1678,755000;1765905671598013;-1678,755000;1765905671598013;0
1214;1765905671598014;-1478,295000;1765905671598014;-1478,295000;1765905671598014;0
1215;1765905671598015;-1277,835000;1765905671598015;-1277,835000;1765905671598015;0
1216;1765905671598016;-1077,375000;1765905671598016;-1077,375000;1765905671598016;0
1217;1765905671598017;-876,915000;1765905671598017;-876,915000;1765905671598017;0
1218;1765905671598018;-876,915000;1765905671598017;-676,455000;1765905671598018;0
1219;1765905671598019;-475,995000;1765905671598019;-475,995000;1765905671598019;0
1220;1765905671598020;-275,535000;1765905671598020;-275,535000;1765905671598020;0
1221;1765905671598021;-75,075000;1765905671598021;-75,075000;1765905671598021;0
1222;1765905671598022;125,385000;1765905671598022;125,385000;1765905671598022;0
1223;1765905671598023;325,845000;1765905671598023;325,845000;1765905671598023;0
1224;1765905671598024;526,305000;1765905671598024;526,305000;1765905671598024;0
1225;1765905671598025;726,765000;1765905671598025;726,765000;1765905671598025;0
1226;1765905671598026;927,225000;1765905671598026;927,225000;1765905671598026;0
1227;1765905671598027;1127,685000;1765905671598027;1127,685000;1765905671598027;0
1228;1765905671651264;1127,685000;1765905671598027;1328,145000;1765905671651264;0
1229;1765905671651266;1528,605000;1765905671651266;1328,145000;1765905671651264;0
1230;1765905671651267;1528,605000;1765905671651266;1528,605000;1765905671651267;0
1231;1765905671651268;1729,065000;1765905671651268;1729,065000;1765905671651268;0
1232;1765905671651269;1929,525000;1765905671651269;1729,065000;1765905671651268;0
1233;1765905671651270;1929,525000;1765905671651269;1929,525000;1765905671651270;0
1234;1765905671651271;2129,985000;1765905671651271;2129,985000;1765905671651271;0
1235;1765905671651272;2330,445000;1765905671651272;2330,445000;1765905671651272;0
1236;1765905671651273;2530,905000;1765905671651273;2330,445000;1765905671651272;0
1237;1765905671651274;2731,365000;1765905671651274;2530,905000;1765905671651274;0
1238;1765905671651275;2731,365000;1765905671651274;2731,365000;1765905671651275;0
1239;1765905671651276;2931,825000;1765905671651276;2931,825000;1765905671651276;0
1240;1765905671651277;3132,285000;1765905671651277;3132,285000;1765905671651277;0
1241;1765905671651278;3332,745000;1765905671651278;3332,745000;1765905671651278;0
1242;1765905671651279;3533,205000;1765905671651279;3533,205000;1765905671651279;0
1243;1765905671651280;3733,665000;1765905671651280;3733,665000;1765905671651280;0
1244;1765905671651281;3934,125000;1765905671651281;3934,125000;1765905671651281;0
1245;1765905671651282;4134,585000;1765905671651282;4134,585000;1765905671651282;0
1246;1765905671651283;4335,045000;1765905671651283;4335,045000;1765905671651283;0
1247;1765905671651284;4535,505000;1765905671651284;4535,505000;1765905671651284;0
1248;1765905671651287;4735,965000;1765905671651287;4735,965000;1765905671651287;0
1249;1765905671651288;4936,425000;1765905671651288;4936,425000;1765905671651288;0
1250;1765905671651289;5136,885000;1765905671651289;5136,885000;1765905671651289;0
1251;1765905671654389;5537,805000;1765905671654389;5136,885000;1765905671651289;0
1252;1765905671654395;5537,805000;1765905671654389;5537,805000;1765905671654395;0
1253;1765905671654398;5738,265000;1765905671654398;5537,805000;1765905671654395;0
1254;1765905671654399;5738,265000;1765905671654398;5738,265000;1765905671654399;0
1255;1765905671654401;5938,725000;1765905671654401;5738,265000;1765905671654399;0
1256;1765905671654402;5938,725000;1765905671654401;5938,725000;1765905671654402;0
1257;1765905671654405;6139,185000;1765905671654405;5938,725000;1765905671654402;0
1258;1765905671654406;6139,185000;1765905671654405;6139,185000;1765905671654406;0
1259;1765905671654409;6339,645000;1765905671654409;6139,185000;1765905671654406;0
1260;1765905671654410;6339,645000;1765905671654409;6339,645000;1765905671654410;0
1261;1765905671654412;-6289,335000;1765905671654412;6339,645000;1765905671654410;0
1262;1765905671654413;-6289,335000;1765905671654412;-6289,335000;1765905671654413;0
1263;1765905671654416;-6088,875000;1765905671654416;-6289,335000;1765905671654413;0
1264;1765905671654417;-6088,875000;1765905671654416;-6088,875000;1765905671654417;0
1265;1765905671654419;-5888,415000;1765905671654419;-6088,875000;1765905671654417;0
1266;1765905671654420;-5888,415000;1765905671654419;-5888,415000;1765905671654420;0
1267;1765905671654422;-5687,955000;1765905671654422;-5888,415000;1765905671654420;0
1268;1765905671654423;-5687,955000;1765905671654422;-5687,955000;1765905671654423;0
1269;1765905671654425;-5487,495000;1765905671654425;-5687,955000;1765905671654423;0
1270;1765905671654426;-5487,495000;1765905671654425;-5487,495000;1765905671654426;0
1271;1765905671654429;-5287,035000;1765905671654429;-5487,495000;1765905671654426;0
1272;1765905671654430;-5287,035000;1765905671654429;-5287,035000;1765905671654430;0
1273;1765905671654432;-5086,575000;1765905671654432;-5287,035000;1765905671654430;0
1274;1765905671654433;-5086,575000;1765905671654432;-5086,575000;1765905671654433;0
1275;1765905671654435;-4886,115000;1765905671654435;-5086,575000;1765905671654433;0
1276;1765905671654436;-4886,115000;1765905671654435;-4886,115000;1765905671654436;0
1277;1765905671654438;-4685,655000;1765905671654438;-4886,115000;1765905671654436;0
1278;1765905671654440;-4685,655000;1765905671654438;-4685,655000;1765905671654440;0
1279;1765905671654442;-4485,195000;1765905671654442;-4685,655000;1765905671654440;0
1280;1765905671654443;-4485,195000;1765905671654442;-4485,195000;1765905671654443;0
1281;1765905671654445;-4284,735000;1765905671654445;-4485,195000;1765905671654443;0
1282;1765905671654446;-4284,735000;1765905671654445;-4284,735000;1765905671654446;0
1283;1765905671654448;-4084,275000;1765905671654448;-4284,735000;1765905671654446;0
1284;1765905671654449;-4084,275000;1765905671654448;-4084,275000;1765905671654449;0
1285;1765905671654451;-3933,930000;1765905671654451;-4084,275000;1765905671654449;0
1286;1765905671654452;-3933,930000;1765905671654451;-3883,815000;1765905671654452;0
1287;1765905671654454;-3683,355000;1765905671654454;-3883,815000;1765905671654452;0
1288;1765905671654455;-3683,355000;1765905671654454;-3683,355000;1765905671654455;0
1289;1765905671656932;-3683,355000;1765905671654454;-3482,895000;1765905671656932;0
1290;1765905671656937;-3282,435000;1765905671656937;-3482,895000;1765905671656932;0
1291;1765905671656938;-3282,435000;1765905671656937;-3282,435000;1765905671656938;0
1292;1765905671656940;-3081,975000;1765905671656940;-3282,435000;1765905671656938;0
1293;1765905671656941;-3081,975000;1765905671656940;-3081,975000;1765905671656941;0
1294;1765905671656943;-2881,515000;1765905671656943;-3081,975000;1765905671656941;0
1295;1765905671656944;-2881,515000;1765905671656943;-2881,515000;1765905671656944;0
1296;1765905671656946;-2681,055000;1765905671656946;-2681,055000;1765905671656946;0
1297;1765905671656948;-2480,595000;1765905671656948;-2681,055000;1765905671656946;0
1298;1765905671656949;-2480,595000;1765905671656948;-2480,595000;1765905671656949;0
1299;1765905671656951;-2280,135000;1765905671656951;-2280,135000;1765905671656951;0
1300;1765905671656953;-2079,675000;1765905671656953;-2280,135000;1765905671656951;0
1301;1765905671656954;-2079,675000;1765905671656953;-2079,675000;1765905671656954;0
1302;1765905671656955;-1879,215000;1765905671656955;-2079,675000;1765905671656954;0
1303;1765905671656956;-1879,215000;1765905671656955;-1879,215000;1765905671656956;0
1304;1765905671656958;-1678,755000;1765905671656958;-1879,215000;1765905671656956;0
1305;1765905671656959;-1678,755000;1765905671656958;-1678,755000;1765905671656959;0
1306;1765905671656960;-1478,295000;1765905671656960;-1678,755000;1765905671656959;0
1307;1765905671656961;-1478,295000;1765905671656960;-1478,295000;1765905671656961;0
1308;1765905671656963;-1277,835000;1765905671656963;-1478,295000;1765905671656961;0
1309;1765905671656964;-1277,835000;1765905671656963;-1277,835000;1765905671656964;0
1310;1765905671656965;-1077,375000;1765905671656965;-1277,835000;1765905671656964;0
1311;1765905671656966;-1077,375000;1765905671656965;-1077,375000;1765905671656966;0
1312;1765905671656967;-876,915000;1765905671656967;-1077,375000;1765905671656966;0
1313;1765905671656968;-876,915000;1765905671656967;-876,915000;1765905671656968;0
1314;1765905671656970;-876,915000;1765905671656967;-3921,450000;1765905671656970;0
1315;1765905671656971;-876,915000;1765905671656967;-676,455000;1765905671656971;0
1316;1765905671656972;-475,995000;1765905671656972;-676,455000;1765905671656971;0
1317;1765905671656973;-475,995000;1765905671656972;-475,995000;1765905671656973;0
1318;1765905671656975;-275,535000;1765905671656975;-475,995000;1765905671656973;0
1319;1765905671656976;-275,535000;1765905671656975;-275,535000;1765905671656976;0
1320;1765905671656978;-75,075000;1765905671656978;-75,075000;1765905671656978;0
1321;1765905671656980;125,385000;1765905671656980;-75,075000;1765905671656978;0
1322;1765905671656981;125,385000;1765905671656980;125,385000;1765905671656981;0
1323;1765905671656982;325,845000;1765905671656982;125,385000;1765905671656981;0
1324;1765905671656983;325,845000;1765905671656982;325,845000;1765905671656983;0
1325;1765905671705246;325,845000;1765905671656982;526,305000;1765905671705246;0
1326;1765905671705249;726,765000;1765905671705249;526,305000;1765905671705246;0
1327;1765905671705250;726,765000;1765905671705249;726,765000;1765905671705250;0
1328;1765905671705251;927,225000;1765905671705251;726,765000;1765905671705250;0
1329;1765905671705252;927,225000;1765905671705251;927,225000;1765905671705252;0
1330;1765905671705253;1127,685000;1765905671705253;1127,685000;1765905671705253;0
1331;1765905671705254;1328,145000;1765905671705254;1127,685000;1765905671705253;0
1332;1765905671705255;1328,145000;1765905671705254;1328,145000;1765905671705255;0
1333;1765905671705256;1528,605000;1765905671705256;1328,145000;1765905671705255;0
1334;1765905671705257;1528,605000;1765905671705256;1528,605000;1765905671705257;0
1335;1765905671705258;1729,065000;1765905671705258;1729,065000;1765905671705258;0
1336;1765905671705260;1929,525000;1765905671705260;1929,525000;1765905671705260;0
1337;1765905671705261;2129,985000;1765905671705261;1929,525000;1765905671705260;0
1338;1765905671705262;2129,985000;1765905671705261;2129,985000;1765905671705262;0
1339;1765905671705263;2330,445000;1765905671705263;2330,445000;1765905671705263;0
1340;1765905671705264;2530,905000;1765905671705264;2330,445000;1765905671705263;0
1341;1765905671705265;2530,905000;1765905671705264;2530,905000;1765905671705265;0
1342;1765905671705266;2731,365000;1765905671705266;2731,365000;1765905671705266;0
1343;1765905671705267;2931,825000;1765905671705267;2931,825000;1765905671705267;0
1344;1765905671705269;3132,285000;1765905671705269;3132,285000;1765905671705269;0
1345;1765905671705270;3332,745000;1765905671705270;3332,745000;1765905671705270;0
1346;1765905671705271;3533,205000;1765905671705271;3332,745000;1765905671705270;0
1347;1765905671705272;3533,205000;1765905671705271;3533,205000;1765905671705272;0
1348;1765905671705273;3733,665000;1765905671705273;3733,665000;1765905671705273;0
1349;1765905671705274;3934,125000;1765905671705274;3733,665000;1765905671705273;0
1350;1765905671705275;3934,125000;1765905671705274;3934,125000;1765905671705275;0
1351;1765905671705276;4134,585000;1765905671705276;3934,125000;1765905671705275;0
1352;1765905671705279;4134,585000;1765905671705276;4134,585000;1765905671705279;0
1353;1765905671705280;4335,045000;1765905671705280;4335,045000;1765905671705280;0
1354;1765905671707256;4735,965000;1765905671707256;4335,045000;1765905671705280;0
1355;1765905671707258;4735,965000;1765905671707256;4735,965000;1765905671707258;0
1356;1765905671707259;4936,425000;1765905671707259;4735,965000;1765905671707258;0
1357;1765905671707260;5136,885000;1765905671707260;4936,425000;1765905671707260;0
1358;1765905671707261;5136,885000;1765905671707260;5136,885000;1765905671707261;0
1359;1765905671707262;5337,345000;1765905671707262;5337,345000;1765905671707262;0
1360;1765905671707263;5537,805000;1765905671707263;5537,805000;1765905671707263;0
1361;1765905671707264;5738,265000;1765905671707264;5738,265000;1765905671707264;0
1362;1765905671707265;5938,725000;1765905671707265;5738,265000;1765905671707264;0
1363;1765905671707266;6139,185000;1765905671707266;5938,725000;1765905671707266;0
1364;1765905671707267;6339,645000;1765905671707267;6139,185000;1765905671707267;0
1365;1765905671707268;6339,645000;1765905671707267;6339,645000;1765905671707268;0
1366;1765905671707269;-6289,335000;1765905671707269;-6289,335000;1765905671707269;0
1367;1765905671707270;-6088,875000;1765905671707270;-6088,875000;1765905671707270;0
1368;1765905671707271;-5888,415000;1765905671707271;-5888,415000;1765905671707271;0
1369;1765905671707272;-5687,955000;1765905671707272;-5687,955000;1765905671707272;0
1370;1765905671707273;-5487,495000;1765905671707273;-5487,495000;1765905671707273;0
1371;1765905671707274;-5287,035000;1765905671707274;-5287,035000;1765905671707274;0
1372;1765905671707275;-5086,575000;1765905671707275;-5086,575000;1765905671707275;0
1373;1765905671707276;-4886,115000;1765905671707276;-4886,115000;1765905671707276;0
1374;1765905671707277;-4485,195000;1765905671707277;-4685,655000;1765905671707277;0
1375;1765905671707278;-4485,195000;1765905671707277;-4485,195000;1765905671707278;0
1376;1765905671709837;-4485,195000;1765905671707277;-4284,735000;1765905671709837;0
1377;1765905671709838;-4084,275000;1765905671709838;-4284,735000;1765905671709837;0
1378;1765905671709839;-4084,275000;1765905671709838;-4084,275000;1765905671709839;0
1379;1765905671709840;-3933,930000;1765905671709840;-3883,815000;1765905671709840;0
1380;1765905671709841;-3683,355000;1765905671709841;-3683,355000;1765905671709841;0
1381;1765905671709842;-3482,895000;1765905671709842;-3482,895000;1765905671709842;0
1382;1765905671709843;-3282,435000;1765905671709843;-3282,435000;1765905671709843;0
1383;1765905671709844;-3081,975000;1765905671709844;-3081,975000;1765905671709844;0
1384;1765905671709845;-2881,515000;1765905671709845;-2881,515000;1765905671709845;0
1385;1765905671709846;-2681,055000;1765905671709846;-2681,055000;1765905671709846;0
1386;1765905671709847;-2480,595000;1765905671709847;-2480,595000;1765905671709847;0
1387;1765905671709848;-2280,135000;1765905671709848;-2280,135000;1765905671709848;0
1388;1765905671709849;-2079,675000;1765905671709849;-2079,675000;1765905671709849;0
1389;1765905671709850;-1879,215000;1765905671709850;-1879,215000;1765905671709850;0
1390;1765905671709851;-1678,755000;1765905671709851;-1678,755000;1765905671709851;0
1391;1765905671709852;-1478,295000;1765905671709852;-1478,295000;1765905671709852;0
1392;1765905671709853;-1077,375000;1765905671709853;-1277,835000;1765905671709853;0
1393;1765905671709854;-876,915000;1765905671709854;-1077,375000;1765905671709854;0
1394;1765905671709855;-876,915000;1765905671709854;-3921,450000;1765905671709855;0
1395;1765905671709856;-475,995000;1765905671709856;-676,455000;1765905671709856;0
1396;1765905671709857;-475,995000;1765905671709856;-475,995000;1765905671709857;0
1397;1765905671765578;-475,995000;1765905671709856;-275,535000;1765905671765578;0
1398;1765905671765582;-75,075000;1765905671765582;-275,535000;1765905671765578;0
1399;1765905671765584;-75,075000;1765905671765582;-75,075000;1765905671765584;0
1400;1765905671765585;125,385000;1765905671765585;-75,075000;1765905671765584;0
1401;1765905671765586;125,385000;1765905671765585;125,385000;1765905671765586;0
1402;1765905671765588;325,845000;1765905671765588;125,385000;1765905671765586;0
1403;1765905671765589;325,845000;1765905671765588;325,845000;1765905671765589;0
1404;1765905671765590;526,305000;1765905671765590;325,845000;1765905671765589;0
1405;1765905671765591;526,305000;1765905671765590;526,305000;1765905671765591;0
1406;1765905671765592;726,765000;1765905671765592;526,305000;1765905671765591;0
1407;1765905671765593;726,765000;1765905671765592;726,765000;1765905671765593;0
1408;1765905671765594;927,225000;1765905671765594;726,765000;1765905671765593;0
1409;1765905671765595;927,225000;1765905671765594;927,225000;1765905671765595;0
1410;1765905671765596;1127,685000;1765905671765596;927,225000;1765905671765595;0
1411;1765905671765597;1127,685000;1765905671765596;1127,685000;1765905671765597;0
1412;1765905671765599;1328,145000;1765905671765599;1328,145000;1765905671765599;0
1413;1765905671765601;1528,605000;1765905671765601;1528,605000;1765905671765601;0
1414;1765905671765603;1729,065000;1765905671765603;1729,065000;1765905671765603;0
1415;1765905671765605;1929,525000;1765905671765605;1929,525000;1765905671765605;0
1416;1765905671765607;2129,985000;1765905671765607;2129,985000;1765905671765607;0
1417;1765905671765609;2330,445000;1765905671765609;2129,985000;1765905671765607;0
1418;1765905671765610;2330,445000;1765905671765609;2330,445000;1765905671765610;0
1419;1765905671765611;2530,905000;1765905671765611;2330,445000;1765905671765610;0
1420;1765905671765612;2530,905000;1765905671765611;2530,905000;1765905671765612;0
1421;1765905671765613;2731,365000;1765905671765613;2530,905000;1765905671765612;0
1422;1765905671765614;2731,365000;1765905671765613;2731,365000;1765905671765614;0
1423;1765905671765615;2931,825000;1765905671765615;2731,365000;1765905671765614;0
1424;1765905671765616;2931,825000;1765905671765615;2931,825000;1765905671765616;0
1425;1765905671765618;3132,285000;1765905671765618;3132,285000;1765905671765618;0
1426;1765905671765620;3332,745000;1765905671765620;3132,285000;1765905671765618;0
1427;1765905671765621;3332,745000;1765905671765620;3332,745000;1765905671765621;0
1428;1765905671765622;3533,205000;1765905671765622;3332,745000;1765905671765621;0
1429;1765905671765623;3533,205000;1765905671765622;3533,205000;1765905671765623;0
1430;1765905671767474;3934,125000;1765905671767474;3533,205000;1765905671765623;0
1431;1765905671767477;3934,125000;1765905671767474;3934,125000;1765905671767477;0
1432;1765905671767479;4134,585000;1765905671767479;3934,125000;1765905671767477;0
1433;1765905671767480;4134,585000;1765905671767479;4134,585000;1765905671767480;0
1434;1765905671767481;4335,045000;1765905671767481;4134,585000;1765905671767480;0
1435;1765905671767482;4335,045000;1765905671767481;4335,045000;1765905671767482;0
1436;1765905671767483;4535,505000;1765905671767483;4335,045000;1765905671767482;0
1437;1765905671767484;4535,505000;1765905671767483;4535,505000;1765905671767484;0
1438;1765905671767485;4735,965000;1765905671767485;4535,505000;1765905671767484;0
1439;1765905671767486;4735,965000;1765905671767485;4735,965000;1765905671767486;0
1440;1765905671767489;4936,425000;1765905671767489;4735,965000;1765905671767486;0
1441;1765905671767490;4936,425000;1765905671767489;4936,425000;1765905671767490;0
1442;1765905671767491;5136,885000;1765905671767491;4936,425000;1765905671767490;0
1443;1765905671767492;5136,885000;1765905671767491;5136,885000;1765905671767492;0
1444;1765905671767493;5337,345000;1765905671767493;5337,345000;1765905671767493;0
1445;1765905671767495;5537,805000;1765905671767495;5537,805000;1765905671767495;0
1446;1765905671767497;5738,265000;1765905671767497;5738,265000;1765905671767497;0
1447;1765905671767499;5938,725000;1765905671767499;5738,265000;1765905671767497;0
1448;1765905671767500;5938,725000;1765905671767499;5938,725000;1765905671767500;0
1449;1765905671767501;6139,185000;1765905671767501;6139,185000;1765905671767501;0
1450;1765905671767503;6339,645000;1765905671767503;6339,645000;1765905671767503;0
1451;1765905671767505;-6289,335000;1765905671767505;-6289,335000;1765905671767505;0
1452;1765905671767506;-6088,875000;1765905671767506;-6289,335000;1765905671767505;0
1453;1765905671767507;-6088,875000;1765905671767506;-6088,875000;1765905671767507;0
1454;1765905671767508;-5888,415000;1765905671767508;-6088,875000;1765905671767507;0
1455;1765905671767509;-5888,415000;1765905671767508;-5888,415000;1765905671767509;0
1456;1765905671767510;-5687,955000;1765905671767510;-5888,415000;1765905671767509;0
1457;1765905671767511;-5687,955000;1765905671767510;-5687,955000;1765905671767511;0
1458;1765905671767512;-5487,495000;1765905671767512;-5687,955000;1765905671767511;0
1459;1765905671767513;-5487,495000;1765905671767512;-5487,495000;1765905671767513;0
1460;1765905671767514;-5287,035000;1765905671767514;-5487,495000;1765905671767513;0
1461;1765905671767515;-5287,035000;1765905671767514;-5287,035000;1765905671767515;0
1462;1765905671771314;-5287,035000;1765905671767514;-5086,575000;1765905671771314;0
1463;1765905671771319;-4886,115000;1765905671771319;-5086,575000;1765905671771314;0
