Index;Time_us;Ch1_val_uV;Ch1_ts_us;Ch2_val_uV;Ch2_ts_us;StimState
0;1765904824205277;;;-4476,225000;1765904824205277;0
1;1765904824205279;-405,015000;1765904824205279;-4324,125000;1765904824205279;0
2;1765904824205280;-1361,100000;1765904824205280;-4324,125000;1765904824205279;0
3;1765904824205281;864,825000;1765904824205281;-4475,250000;1765904824205281;0
4;1765904824205282;864,825000;1765904824205281;-4198,740000;1765904824205282;0
5;1765904824205283;1285,245000;1765904824205283;-4381,065000;1765904824205283;0
6;1765904824205284;3682,965000;1765904824205284;-3680,040000;1765904824205284;0
7;1765904824205285;-1069,965000;1765904824205285;61,620000;1765904824205285;0
8;1765904824205286;-348,855000;1765904824205286;3101,475000;1765904824205286;0
9;1765904824205287;3778,905000;1765904824205287;6389,565000;1765904824205287;0
10;1765904824205288;3549,585000;1765904824205288;6389,565000;1765904824205287;0
11;1765904824205289;3549,585000;1765904824205288;6389,565000;1765904824205289;0
12;1765904824205290;831,870000;1765904824205290;5833,815000;1765904824205290;0
13;1765904824205291;-1473,420000;1765904824205291;319,800000;1765904824205291;0
14;1765904824205292;-2800,980000;1765904824205292;319,800000;1765904824205291;0
15;1765904824205293;-2800,980000;1765904824205292;4690,140000;1765904824205293;0
16;1765904824205294;888,225000;1765904824205294;6389,565000;1765904824205294;0
17;1765904824205295;3568,695000;1765904824205295;-55,380000;1765904824205295;0
18;1765904824205296;5406,570000;1765904824205296;-3036,345000;1765904824205296;0
19;1765904824205297;1882,335000;1765904824205297;-3594,825000;1765904824205297;0
20;1765904824205298;1115,205000;1765904824205298;5163,795000;1765904824205298;0
21;1765904824205299;1173,120000;1765904824205299;-2723,370000;1765904824205299;0
22;1765904824205300;1269,255000;1765904824205300;-4620,915000;1765904824205300;0
23;1765904824205424;1844,895000;1765904824205424;-4620,915000;1765904824205300;0
24;1765904824205425;1844,895000;1765904824205424;-4308,330000;1765904824205425;0
25;1765904824205426;-207,090000;1765904824205426;-4408,950000;1765904824205426;0
26;1765904824205427;1440,465000;1765904824205427;-4199,325000;1765904824205427;0
27;1765904824205428;2663,700000;1765904824205428;-4190,355000;1765904824205428;0
28;1765904824205429;353,145000;1765904824205429;-3832,335000;1765904824205429;0
29;1765904824205430;125,190000;1765904824205430;-1505,595000;1765904824205430;0
30;1765904824205431;-687,960000;1765904824205431;3751,605000;1765904824205431;0
31;1765904824205432;-530,595000;1765904824205432;6389,565000;1765904824205432;0
32;1765904824205433;-1151,670000;1765904824205433;5843,565000;1765904824205433;0
33;1765904824205434;1668,615000;1765904824205434;-786,045000;1765904824205434;0
34;1765904824205435;2968,875000;1765904824205435;3225,690000;1765904824205435;0
35;1765904824205436;2031,705000;1765904824205436;3225,690000;1765904824205435;0
36;1765904824205437;3626,025000;1765904824205437;5393,310000;1765904824205437;0
37;1765904824205438;3626,025000;1765904824205437;-1018,290000;1765904824205438;0
38;1765904824205439;3665,220000;1765904824205439;-3620,565000;1765904824205439;0
39;1765904824205440;3900,585000;1765904824205440;-4442,295000;1765904824205440;0
40;1765904824205441;3365,895000;1765904824205441;4409,340000;1765904824205441;0
41;1765904824205442;537,615000;1765904824205442;-3113,370000;1765904824205442;0
42;1765904824205443;537,615000;1765904824205442;-4440,735000;1765904824205443;0
43;1765904824205630;537,615000;1765904824205442;-4426,890000;1765904824205630;0
44;1765904824205631;-674,505000;1765904824205631;-4426,890000;1765904824205630;0
45;1765904824205632;-674,505000;1765904824205631;-4358,055000;1765904824205632;0
46;1765904824205633;-1267,890000;1765904824205633;-4469,010000;1765904824205633;0
47;1765904824205634;-1267,890000;1765904824205633;-4185,870000;1765904824205634;0
48;1765904824205635;-642,135000;1765904824205635;-4283,175000;1765904824205635;0
49;1765904824205636;-749,775000;1765904824205636;-3485,625000;1765904824205636;0
50;1765904824205637;-1372,800000;1765904824205637;-428,220000;1765904824205637;0
51;1765904824205638;-717,210000;1765904824205638;3544,125000;1765904824205638;0
52;1765904824205639;1587,690000;1765904824205639;6389,565000;1765904824205639;0
53;1765904824205640;1833,390000;1765904824205640;6389,565000;1765904824205640;0
54;1765904824205641;1923,090000;1765904824205641;4847,310000;1765904824205641;0
55;1765904824205642;2332,200000;1765904824205642;-604,500000;1765904824205642;0
56;1765904824205643;2689,440000;1765904824205643;5797,545000;1765904824205643;0
57;1765904824205644;2689,440000;1765904824205643;6389,565000;1765904824205644;0
58;1765904824205645;2409,225000;1765904824205645;-944,385000;1765904824205645;0
59;1765904824205646;2372,565000;1765904824205646;-3397,680000;1765904824205646;0
60;1765904824205647;2185,170000;1765904824205647;-4451,070000;1765904824205647;0
61;1765904824205648;2762,370000;1765904824205648;4097,925000;1765904824205648;0
62;1765904824205649;313,170000;1765904824205649;-3346,200000;1765904824205649;0
63;1765904824205650;397,605000;1765904824205650;-3346,200000;1765904824205649;0
64;1765904824205651;397,605000;1765904824205650;-4347,135000;1765904824205651;0
65;1765904824205861;397,605000;1765904824205650;-4345,575000;1765904824205861;0
66;1765904824205863;-1467,180000;1765904824205863;-4184,115000;1765904824205863;0
67;1765904824205864;-2818,530000;1765904824205864;-4369,950000;1765904824205864;0
68;1765904824205865;-195,390000;1765904824205865;-4369,950000;1765904824205864;0
69;1765904824205866;-245,505000;1765904824205866;-4125,615000;1765904824205866;0
70;1765904824205867;-245,505000;1765904824205866;-4105,140000;1765904824205867;0
71;1765904824205868;-469,950000;1765904824205868;-3804,255000;1765904824205868;0
72;1765904824205870;1919,385000;1765904824205870;-899,730000;1765904824205870;0
73;1765904824205871;1551,810000;1765904824205871;3276,000000;1765904824205871;0
74;1765904824205872;1384,305000;1765904824205872;6389,565000;1765904824205872;0
75;1765904824205873;1909,830000;1765904824205873;6389,565000;1765904824205873;0
76;1765904824205874;1408,095000;1765904824205874;5183,685000;1765904824205874;0
77;1765904824205875;749,385000;1765904824205875;5,070000;1765904824205875;0
78;1765904824205876;-2230,995000;1765904824205876;4453,995000;1765904824205876;0
79;1765904824205877;-2230,995000;1765904824205876;6389,565000;1765904824205877;0
80;1765904824205878;-1144,845000;1765904824205878;-494,910000;1765904824205878;0
81;1765904824205879;-1323,855000;1765904824205879;-3296,865000;1765904824205879;0
82;1765904824205880;498,225000;1765904824205880;-3279,120000;1765904824205880;0
83;1765904824205881;-220,350000;1765904824205881;5769,465000;1765904824205881;0
84;1765904824205883;-2309,775000;1765904824205883;-1781,325000;1765904824205883;0
85;1765904824205884;-4620,525000;1765904824205884;-4643,535000;1765904824205884;0
86;1765904824206054;-4620,525000;1765904824205884;-4474,860000;1765904824206054;0
87;1765904824206055;4321,980000;1765904824206055;-4375,215000;1765904824206055;0
88;1765904824206056;1017,705000;1765904824206056;-4452,435000;1765904824206056;0
89;1765904824206057;4045,275000;1765904824206057;-4048,785000;1765904824206057;0
90;1765904824206058;2742,675000;1765904824206058;-4239,300000;1765904824206058;0
91;1765904824206059;2571,075000;1765904824206059;-3829,215000;1765904824206059;0
92;1765904824206060;3377,400000;1765904824206060;-515,775000;1765904824206060;0
93;1765904824206061;774,735000;1765904824206061;3215,160000;1765904824206061;0
94;1765904824206062;1040,130000;1765904824206062;6389,565000;1765904824206062;0
95;1765904824206063;-934,830000;1765904824206063;6389,565000;1765904824206063;0
96;1765904824206064;-197,340000;1765904824206064;17,160000;1765904824206064;0
97;1765904824206065;-67,860000;1765904824206065;17,160000;1765904824206064;0
98;1765904824206066;698,295000;1765904824206066;3858,855000;1765904824206066;0
99;1765904824206067;698,295000;1765904824206066;5907,330000;1765904824206067;0
100;1765904824206068;-1786,395000;1765904824206068;21,060000;1765904824206068;0
101;1765904824206069;-1131,000000;1765904824206069;-3109,275000;1765904824206069;0
102;1765904824206070;1345,695000;1765904824206070;-3885,570000;1765904824206070;0
103;1765904824206071;3788,070000;1765904824206071;-3885,570000;1765904824206070;0
104;1765904824206072;2620,410000;1765904824206072;4845,750000;1765904824206072;0
105;1765904824206073;4057,170000;1765904824206073;-2938,650000;1765904824206073;0
106;1765904824206074;4057,170000;1765904824206073;-4344,210000;1765904824206074;0
107;1765904824206184;4057,170000;1765904824206073;-4530,630000;1765904824206184;0
108;1765904824206185;3108,105000;1765904824206185;-4385,355000;1765904824206185;0
109;1765904824206186;2163,720000;1765904824206186;-4506,060000;1765904824206186;0
110;1765904824206187;2302,755000;1765904824206187;-4232,085000;1765904824206187;0
111;1765904824206188;3362,580000;1765904824206188;-4231,695000;1765904824206188;0
112;1765904824206189;2121,405000;1765904824206189;-3732,300000;1765904824206189;0
113;1765904824206190;900,315000;1765904824206190;-2641,665000;1765904824206190;0
114;1765904824206191;850,395000;1765904824206191;3592,095000;1765904824206191;0
115;1765904824206192;2766,075000;1765904824206192;6389,565000;1765904824206192;0
116;1765904824206194;2722,005000;1765904824206194;4477,980000;1765904824206194;0
117;1765904824206195;-226,395000;1765904824206195;-329,160000;1765904824206195;0
118;1765904824206196;-580,320000;1765904824206196;6389,565000;1765904824206196;0
119;1765904824206197;1448,655000;1765904824206197;5579,340000;1765904824206197;0
120;1765904824206198;2855,190000;1765904824206198;-996,840000;1765904824206198;0
121;1765904824206199;3283,800000;1765904824206199;-3478,605000;1765904824206199;0
122;1765904824206200;2765,880000;1765904824206200;-4225,845000;1765904824206200;0
123;1765904824206201;1870,440000;1765904824206201;4640,220000;1765904824206201;0
124;1765904824206202;2799,225000;1765904824206202;-2599,545000;1765904824206202;0
125;1765904824206203;2799,225000;1765904824206202;-4213,950000;1765904824206203;0
126;1765904824248416;2799,225000;1765904824206202;-4321,785000;1765904824248416;0
127;1765904824248418;778,245000;1765904824248418;-4321,785000;1765904824248416;0
128;1765904824248419;-848,250000;1765904824248419;-4096,950000;1765904824248419;0
129;1765904824248420;-848,250000;1765904824248419;-4340,115000;1765904824248420;0
130;1765904824248421;1921,530000;1765904824248421;-3981,120000;1765904824248421;0
131;1765904824248422;-985,530000;1765904824248422;-4173,195000;1765904824248422;0
132;1765904824248423;1389,570000;1765904824248423;-3482,895000;1765904824248423;0
133;1765904824248424;318,630000;1765904824248424;-1749,540000;1765904824248424;0
134;1765904824248425;318,630000;1765904824248424;3189,420000;1765904824248425;0
135;1765904824248426;-464,685000;1765904824248426;6389,565000;1765904824248426;0
136;1765904824248427;-3027,375000;1765904824248427;6389,565000;1765904824248427;0
137;1765904824248429;1473,615000;1765904824248429;4962,555000;1765904824248429;0
138;1765904824248430;672,165000;1765904824248430;-346,320000;1765904824248430;0
139;1765904824248431;1258,725000;1765904824248431;4913,805000;1765904824248431;0
140;1765904824248432;-3764,865000;1765904824248432;6389,565000;1765904824248432;0
141;1765904824248433;-3764,865000;1765904824248432;-961,935000;1765904824248433;0
142;1765904824248434;2288,520000;1765904824248434;-3533,010000;1765904824248434;0
143;1765904824248435;1271,010000;1765904824248435;-3457,935000;1765904824248435;0
144;1765904824248436;2090,790000;1765904824248436;5596,890000;1765904824248436;0
145;1765904824248437;2051,010000;1765904824248437;-1920,360000;1765904824248437;0
146;1765904824248438;2799,810000;1765904824248438;-4422,015000;1765904824248438;0
147;1765904824250475;515,775000;1765904824250475;-4422,015000;1765904824248438;0
148;1765904824250477;515,775000;1765904824250475;-4249,635000;1765904824250477;0
149;1765904824250478;-1582,620000;1765904824250478;-4216,095000;1765904824250478;0
150;1765904824250479;1285,440000;1765904824250479;-4030,845000;1765904824250479;0
151;1765904824250480;958,230000;1765904824250480;-4030,845000;1765904824250479;0
152;1765904824250481;-1143,285000;1765904824250481;-4196,985000;1765904824250481;0
153;1765904824250482;-1143,285000;1765904824250481;-3827,460000;1765904824250482;0
154;1765904824250483;-1258,140000;1765904824250483;-1634,100000;1765904824250483;0
155;1765904824250484;3242,655000;1765904824250484;4948,125000;1765904824250484;0
156;1765904824250485;3144,765000;1765904824250485;4948,125000;1765904824250484;0
157;1765904824250486;3654,300000;1765904824250486;6389,565000;1765904824250486;0
158;1765904824250487;3654,300000;1765904824250486;6389,565000;1765904824250487;0
159;1765904824250488;5398,965000;1765904824250488;3824,340000;1765904824250488;0
160;1765904824250490;-1974,960000;1765904824250490;-695,370000;1765904824250490;0
161;1765904824250491;-1007,565000;1765904824250491;4552,275000;1765904824250491;0
162;1765904824250492;1997,970000;1765904824250492;4552,275000;1765904824250491;0
163;1765904824250493;2961,660000;1765904824250493;-1145,040000;1765904824250493;0
164;1765904824250494;2886,195000;1765904824250494;-3270,735000;1765904824250494;0
165;1765904824250495;3027,375000;1765904824250495;-2983,500000;1765904824250495;0
166;1765904824250496;2438,475000;1765904824250496;5955,495000;1765904824250496;0
167;1765904824250497;132,600000;1765904824250497;-1863,615000;1765904824250497;0
168;1765904824250498;2287,350000;1765904824250498;-4034,745000;1765904824250498;0
169;1765904824253139;2287,350000;1765904824250498;-4326,660000;1765904824253139;0
170;1765904824253141;-1337,310000;1765904824253141;-4165,980000;1765904824253141;0
171;1765904824253142;-3621,930000;1765904824253142;-4165,980000;1765904824253141;0
172;1765904824253143;-3621,930000;1765904824253142;-4320,615000;1765904824253143;0
173;1765904824253144;-2652,975000;1765904824253144;-4020,510000;1765904824253144;0
174;1765904824253145;-14,430000;1765904824253145;-4050,930000;1765904824253145;0
175;1765904824253146;3414,060000;1765904824253146;-3692,325000;1765904824253146;0
176;1765904824253147;4032,015000;1765904824253147;-1310,595000;1765904824253147;0
177;1765904824253148;-1791,465000;1765904824253148;3599,505000;1765904824253148;0
178;1765904824253149;-5359,575000;1765904824253149;6389,565000;1765904824253149;0
179;1765904824253150;1057,095000;1765904824253150;6389,565000;1765904824253150;0
180;1765904824253151;3203,460000;1765904824253151;4901,520000;1765904824253151;0
181;1765904824253152;2866,890000;1765904824253152;-649,740000;1765904824253152;0
182;1765904824253153;2866,890000;1765904824253152;6070,740000;1765904824253153;0
183;1765904824253154;2979,795000;1765904824253154;5529,225000;1765904824253154;0
184;1765904824253155;2979,795000;1765904824253154;-637,845000;1765904824253155;0
185;1765904824253156;1813,695000;1765904824253156;-637,845000;1765904824253155;0
186;1765904824253157;2438,475000;1765904824253157;-4040,400000;1765904824253157;0
187;1765904824253158;2758,080000;1765904824253158;3382,080000;1765904824253158;0
188;1765904824253159;-2508,090000;1765904824253159;-3357,705000;1765904824253159;0
189;1765904824253160;259,935000;1765904824253160;-4645,875000;1765904824253160;0
190;1765904824308696;259,935000;1765904824253160;-4580,745000;1765904824308696;0
191;1765904824308702;1854,645000;1765904824308702;-4580,745000;1765904824308696;0
192;1765904824308704;1854,645000;1765904824308702;-4480,515000;1765904824308704;0
193;1765904824308706;2944,110000;1765904824308706;-4480,515000;1765904824308704;0
194;1765904824308707;2944,110000;1765904824308706;-4496,505000;1765904824308707;0
195;1765904824308709;3421,860000;1765904824308709;-4496,505000;1765904824308707;0
196;1765904824308713;3421,860000;1765904824308709;-4149,795000;1765904824308713;0
197;1765904824308716;2204,865000;1765904824308716;-4300,920000;1765904824308716;0
198;1765904824308717;4652,310000;1765904824308717;-4300,920000;1765904824308716;0
199;1765904824308718;4652,310000;1765904824308717;-3775,980000;1765904824308718;0
200;1765904824308719;-785,460000;1765904824308719;-3775,980000;1765904824308718;0
201;1765904824308720;-785,460000;1765904824308719;-1216,995000;1765904824308720;0
202;1765904824308721;1105,065000;1765904824308721;3258,645000;1765904824308721;0
203;1765904824308722;5356,650000;1765904824308722;3258,645000;1765904824308721;0
204;1765904824308723;5356,650000;1765904824308722;6389,565000;1765904824308723;0
205;1765904824308724;2527,005000;1765904824308724;6389,565000;1765904824308723;0
206;1765904824308725;2527,005000;1765904824308724;6389,565000;1765904824308725;0
207;1765904824308726;3943,485000;1765904824308726;5167,500000;1765904824308726;0
208;1765904824308727;567,450000;1765904824308727;5167,500000;1765904824308726;0
209;1765904824308728;567,450000;1765904824308727;-205,725000;1765904824308728;0
210;1765904824308729;1173,705000;1765904824308729;-205,725000;1765904824308728;0
211;1765904824308730;1173,705000;1765904824308729;6235,905000;1765904824308730;0
212;1765904824308731;-409,305000;1765904824308731;5892,120000;1765904824308731;0
213;1765904824308732;-3660,930000;1765904824308732;5892,120000;1765904824308731;0
214;1765904824308733;-3660,930000;1765904824308732;-1028,820000;1765904824308733;0
215;1765904824308734;-1963,845000;1765904824308734;-3432,585000;1765904824308734;0
216;1765904824308735;-3158,610000;1765904824308735;-3432,585000;1765904824308734;0
217;1765904824308736;-3158,610000;1765904824308735;-4540,770000;1765904824308736;0
218;1765904824308737;-1314,690000;1765904824308737;3215,940000;1765904824308737;0
219;1765904824308738;3137,940000;1765904824308738;3215,940000;1765904824308737;0
220;1765904824308739;3137,940000;1765904824308738;-3721,380000;1765904824308739;0
221;1765904824308740;3345,225000;1765904824308740;-4205,175000;1765904824308740;0
222;1765904824310785;2844,660000;1765904824310785;-4205,175000;1765904824308740;0
223;1765904824310790;2844,660000;1765904824310785;-4047,225000;1765904824310790;0
224;1765904824310792;1005,420000;1765904824310792;-4047,225000;1765904824310790;0
225;1765904824310793;1005,420000;1765904824310792;-4149,015000;1765904824310793;0
226;1765904824310796;2819,895000;1765904824310796;-4149,015000;1765904824310793;0
227;1765904824310797;2819,895000;1765904824310796;-3984,240000;1765904824310797;0
228;1765904824310801;2541,045000;1765904824310801;-3984,240000;1765904824310797;0
229;1765904824310802;2541,045000;1765904824310801;-4059,315000;1765904824310802;0
230;1765904824310803;3016,065000;1765904824310803;-4059,315000;1765904824310802;0
231;1765904824310804;3016,065000;1765904824310803;-3633,825000;1765904824310804;0
232;1765904824310805;2713,425000;1765904824310805;-2105,415000;1765904824310805;0
233;1765904824310807;2566,395000;1765904824310807;3616,665000;1765904824310807;0
234;1765904824310808;1070,160000;1765904824310808;3616,665000;1765904824310807;0
235;1765904824310809;1070,160000;1765904824310808;6389,565000;1765904824310809;0
236;1765904824310810;-667,875000;1765904824310810;6389,565000;1765904824310809;0
237;1765904824310811;-667,875000;1765904824310810;6389,565000;1765904824310811;0
238;1765904824310812;1433,640000;1765904824310812;6389,565000;1765904824310811;0
239;1765904824310813;1433,640000;1765904824310812;5620,290000;1765904824310813;0
240;1765904824310814;-4052,100000;1765904824310814;-50,700000;1765904824310814;0
241;1765904824310815;-900,120000;1765904824310815;-50,700000;1765904824310814;0
242;1765904824310816;-900,120000;1765904824310815;6389,565000;1765904824310816;0
243;1765904824310817;2125,890000;1765904824310817;6389,565000;1765904824310816;0
244;1765904824310818;2125,890000;1765904824310817;5686,590000;1765904824310818;0
245;1765904824310819;-1249,365000;1765904824310819;-672,165000;1765904824310819;0
246;1765904824310820;-462,930000;1765904824310820;-672,165000;1765904824310819;0
247;1765904824310821;-462,930000;1765904824310820;-2535,585000;1765904824310821;0
248;1765904824310822;-591,825000;1765904824310822;-2930,655000;1765904824310822;0
249;1765904824310824;-707,265000;1765904824310824;5949,060000;1765904824310824;0
250;1765904824310825;-506,220000;1765904824310825;-1961,700000;1765904824310825;0
251;1765904824310827;66,495000;1765904824310827;-3569,475000;1765904824310827;0
252;1765904824313707;66,495000;1765904824310827;-3700,320000;1765904824313707;0
253;1765904824313710;219,375000;1765904824313710;-3700,320000;1765904824313707;0
254;1765904824313711;219,375000;1765904824313710;-3660,930000;1765904824313711;0
255;1765904824313712;-264,030000;1765904824313712;-3660,930000;1765904824313711;0
256;1765904824313713;-264,030000;1765904824313712;-3854,760000;1765904824313713;0
257;1765904824313714;1265,160000;1765904824313714;-3854,760000;1765904824313713;0
258;1765904824313715;1265,160000;1765904824313714;-3582,150000;1765904824313715;0
259;1765904824313716;-1514,955000;1765904824313716;-3697,200000;1765904824313716;0
260;1765904824313717;1067,625000;1765904824313717;-3697,200000;1765904824313716;0
261;1765904824313718;1067,625000;1765904824313717;-3072,030000;1765904824313718;0
262;1765904824313719;1521,585000;1765904824313719;-1470,495000;1765904824313719;0
263;1765904824313720;1253,265000;1765904824313720;-1470,495000;1765904824313719;0
264;1765904824313721;1253,265000;1765904824313720;3791,385000;1765904824313721;0
265;1765904824313722;-3768,180000;1765904824313722;6389,565000;1765904824313722;0
266;1765904824313723;2876,835000;1765904824313723;6389,565000;1765904824313722;0
267;1765904824313724;2876,835000;1765904824313723;6389,565000;1765904824313724;0
268;1765904824313725;-83,265000;1765904824313725;6389,565000;1765904824313724;0
269;1765904824313726;-83,265000;1765904824313725;4451,850000;1765904824313726;0
270;1765904824313727;1744,470000;1765904824313727;-297,375000;1765904824313727;0
271;1765904824313728;3987,555000;1765904824313728;-297,375000;1765904824313727;0
272;1765904824313729;3987,555000;1765904824313728;4013,880000;1765904824313729;0
273;1765904824313730;3417,765000;1765904824313730;3235,050000;1765904824313730;0
274;1765904824313731;3664,830000;1765904824313731;3235,050000;1765904824313730;0
275;1765904824313732;3664,830000;1765904824313731;-542,100000;1765904824313732;0
276;1765904824313733;3583,905000;1765904824313733;-3541,980000;1765904824313733;0
277;1765904824313736;3463,590000;1765904824313736;-3541,980000;1765904824313733;0
278;1765904824313737;3463,590000;1765904824313736;-3567,135000;1765904824313737;0
279;1765904824313738;3269,760000;1765904824313738;4912,245000;1765904824313738;0
280;1765904824313739;3009,435000;1765904824313739;4912,245000;1765904824313738;0
281;1765904824313740;3009,435000;1765904824313739;-2859,285000;1765904824313740;0
282;1765904824313741;1130,415000;1765904824313741;-4305,405000;1765904824313741;0
283;1765904824368222;1130,415000;1765904824313741;-4188,795000;1765904824368222;0
284;1765904824368225;-57,525000;1765904824368225;-4188,795000;1765904824368222;0
285;1765904824368226;-65,130000;1765904824368226;-4146,090000;1765904824368226;0
286;1765904824368227;-65,130000;1765904824368226;-4306,380000;1765904824368227;0
287;1765904824368228;2248,935000;1765904824368228;-3988,335000;1765904824368228;0
288;1765904824368229;-854,490000;1765904824368229;-4045,275000;1765904824368229;0
289;1765904824368230;-899,340000;1765904824368230;-4045,275000;1765904824368229;0
290;1765904824368231;-156,585000;1765904824368231;-3659,175000;1765904824368231;0
291;1765904824368233;-156,585000;1765904824368231;-2358,525000;1765904824368233;0
292;1765904824368234;-178,620000;1765904824368234;3645,915000;1765904824368234;0
293;1765904824368235;2779,530000;1765904824368235;6389,565000;1765904824368235;0
294;1765904824368236;2255,955000;1765904824368236;6389,565000;1765904824368236;0
295;1765904824368237;684,255000;1765904824368237;6389,565000;1765904824368236;0
296;1765904824368238;3125,265000;1765904824368238;4643,730000;1765904824368238;0
297;1765904824368239;3736,590000;1765904824368239;5353,335000;1765904824368239;0
298;1765904824368240;3029,130000;1765904824368240;5818,020000;1765904824368240;0
299;1765904824368241;3041,415000;1765904824368241;-774,540000;1765904824368241;0
300;1765904824368242;3767,205000;1765904824368242;-3503,565000;1765904824368242;0
301;1765904824368243;3823,950000;1765904824368243;-3205,020000;1765904824368243;0
302;1765904824368244;2976,870000;1765904824368244;5558,475000;1765904824368244;0
303;1765904824368245;3051,165000;1765904824368245;-1980,030000;1765904824368245;0
304;1765904824368246;2419,755000;1765904824368246;-4238,910000;1765904824368246;0
305;1765904824370484;-1512,810000;1765904824370484;-4238,910000;1765904824368246;0
306;1765904824370485;-1512,810000;1765904824370484;-3992,235000;1765904824370485;0
307;1765904824370486;-3316,170000;1765904824370486;-4004,910000;1765904824370486;0
308;1765904824370487;-3034,980000;1765904824370487;-4004,910000;1765904824370486;0
309;1765904824370488;-3034,980000;1765904824370487;-4004,325000;1765904824370488;0
310;1765904824370489;-1093,170000;1765904824370489;-4030,650000;1765904824370489;0
311;1765904824370490;4232,475000;1765904824370490;-4030,650000;1765904824370489;0
312;1765904824370491;4232,475000;1765904824370490;-3699,540000;1765904824370491;0
313;1765904824370492;278,265000;1765904824370492;-2729,220000;1765904824370492;0
314;1765904824370493;-369,720000;1765904824370493;3614,910000;1765904824370493;0
315;1765904824370494;-345,540000;1765904824370494;6389,565000;1765904824370494;0
316;1765904824370495;-4950,270000;1765904824370495;6389,565000;1765904824370495;0
317;1765904824370496;798,720000;1765904824370496;3977,220000;1765904824370496;0
318;1765904824370497;4060,485000;1765904824370497;-503,295000;1765904824370497;0
319;1765904824370498;2822,235000;1765904824370498;3888,105000;1765904824370498;0
320;1765904824370500;-4370,535000;1765904824370500;3888,105000;1765904824370498;0
321;1765904824370501;-4370,535000;1765904824370500;3615,495000;1765904824370501;0
322;1765904824370502;-657,930000;1765904824370502;-518,895000;1765904824370502;0
323;1765904824370503;334,815000;1765904824370503;-3857,685000;1765904824370503;0
324;1765904824370504;-1147,575000;1765904824370504;-3100,695000;1765904824370504;0
325;1765904824370505;-2690,610000;1765904824370505;-1548,105000;1765904824370505;0
326;1765904824370506;-253,110000;1765904824370506;-4407,780000;1765904824370506;0
327;1765904824373409;-253,110000;1765904824370506;-4429,035000;1765904824373409;0
328;1765904824373411;5313,165000;1765904824373411;-4255,680000;1765904824373411;0
329;1765904824373412;1060,995000;1765904824373412;-4255,680000;1765904824373411;0
330;1765904824373413;-1162,590000;1765904824373413;-4437,420000;1765904824373413;0
331;1765904824373414;-1015,560000;1765904824373414;-4077,840000;1765904824373414;0
332;1765904824373416;-1015,560000;1765904824373414;-4141,605000;1765904824373416;0
333;1765904824373417;-1634,685000;1765904824373417;-3558,945000;1765904824373417;0
334;1765904824373418;-2114,580000;1765904824373418;-2194,140000;1765904824373418;0
335;1765904824373420;-1409,070000;1765904824373420;3390,465000;1765904824373420;0
336;1765904824373421;-1277,445000;1765904824373421;6389,565000;1765904824373421;0
337;1765904824373422;-1312,155000;1765904824373422;6389,565000;1765904824373422;0
338;1765904824373423;-1886,235000;1765904824373423;6389,565000;1765904824373422;0
339;1765904824373424;-540,345000;1765904824373424;4181,580000;1765904824373424;0
340;1765904824373425;-540,345000;1765904824373424;-982,605000;1765904824373425;0
341;1765904824373426;2714,010000;1765904824373426;5854,095000;1765904824373426;0
342;1765904824373427;2797,665000;1765904824373427;5599,035000;1765904824373427;0
343;1765904824373428;12,870000;1765904824373428;5599,035000;1765904824373427;0
344;1765904824373429;12,870000;1765904824373428;-711,750000;1765904824373429;0
345;1765904824373430;-4696,770000;1765904824373430;-3209,505000;1765904824373430;0
346;1765904824373431;1965,600000;1765904824373431;-2493,075000;1765904824373431;0
347;1765904824373432;5391,555000;1765904824373432;5041,530000;1765904824373432;0
348;1765904824373433;242,970000;1765904824373433;5041,530000;1765904824373432;0
349;1765904824373434;245,310000;1765904824373434;-1329,120000;1765904824373434;0
350;1765904824373435;245,310000;1765904824373434;-3948,750000;1765904824373435;0
351;1765904824431015;245,310000;1765904824373434;-3875,430000;1765904824431015;0
352;1765904824431017;-2764,710000;1765904824431017;-3875,430000;1765904824431015;0
353;1765904824431018;-2764,710000;1765904824431017;-3809,520000;1765904824431018;0
354;1765904824431019;-4781,595000;1765904824431019;-3615,300000;1765904824431019;0
355;1765904824431020;-3212,235000;1765904824431020;-3704,220000;1765904824431020;0
356;1765904824431021;-6389,760000;1765904824431021;-3740,100000;1765904824431021;0
357;1765904824431022;-493,740000;1765904824431022;-3740,100000;1765904824431021;0
358;1765904824431023;28,080000;1765904824431023;-3257,280000;1765904824431023;0
359;1765904824431024;28,080000;1765904824431023;-1829,295000;1765904824431024;0
360;1765904824431025;192,465000;1765904824431025;3962,010000;1765904824431025;0
361;1765904824431026;459,030000;1765904824431026;6389,565000;1765904824431026;0
362;1765904824431027;-737,295000;1765904824431027;6389,565000;1765904824431027;0
363;1765904824431028;-2608,905000;1765904824431028;4069,455000;1765904824431028;0
364;1765904824431029;-5924,685000;1765904824431029;-1334,385000;1765904824431029;0
365;1765904824431030;-618,150000;1765904824431030;5260,905000;1765904824431030;0
366;1765904824431032;3092,700000;1765904824431032;4736,355000;1765904824431032;0
367;1765904824431033;5392,725000;1765904824431033;-2227,680000;1765904824431033;0
368;1765904824431034;2581,410000;1765904824431034;-3107,520000;1765904824431034;0
369;1765904824431035;2340,585000;1765904824431035;-2454,660000;1765904824431035;0
370;1765904824431036;3806,205000;1765904824431036;6389,565000;1765904824431036;0
371;1765904824431037;3597,360000;1765904824431037;-977,145000;1765904824431037;0
372;1765904824431038;3161,535000;1765904824431038;-3869,190000;1765904824431038;0
373;1765904824433432;2708,940000;1765904824433432;-3869,190000;1765904824431038;0
374;1765904824433433;2708,940000;1765904824433432;-3722,160000;1765904824433433;0
375;1765904824433434;2380,560000;1765904824433434;-3722,160000;1765904824433433;0
376;1765904824433435;3315,780000;1765904824433435;-3690,765000;1765904824433435;0
377;1765904824433436;3315,780000;1765904824433435;-3545,100000;1765904824433436;0
378;1765904824433437;2704,650000;1765904824433437;-3733,665000;1765904824433437;0
379;1765904824433438;1938,105000;1765904824433438;-3050,580000;1765904824433438;0
380;1765904824433439;2808,585000;1765904824433439;-3050,580000;1765904824433438;0
381;1765904824433441;2778,750000;1765904824433441;-2582,385000;1765904824433441;0
382;1765904824433442;-1540,890000;1765904824433442;4095,780000;1765904824433442;0
383;1765904824433443;-703,170000;1765904824433443;6389,565000;1765904824433443;0
384;1765904824433444;-2738,385000;1765904824433444;5821,920000;1765904824433444;0
385;1765904824433445;781,365000;1765904824433445;339,690000;1765904824433445;0
386;1765904824433446;5390,775000;1765904824433446;6389,565000;1765904824433446;0
387;1765904824433447;5362,305000;1765904824433447;5771,025000;1765904824433447;0
388;1765904824433448;4233,450000;1765904824433448;-773,760000;1765904824433448;0
389;1765904824433449;4093,635000;1765904824433449;-3123,510000;1765904824433449;0
390;1765904824433450;3298,035000;1765904824433450;5806,710000;1765904824433450;0
391;1765904824433451;-4504,110000;1765904824433451;-1758,510000;1765904824433451;0
392;1765904824433452;-426,465000;1765904824433452;-3989,115000;1765904824433452;0
393;1765904824435020;-426,465000;1765904824433452;-3999,645000;1765904824435020;0
394;1765904824435022;1677,585000;1765904824435022;-3969,420000;1765904824435022;0
395;1765904824435023;570,375000;1765904824435023;-4130,295000;1765904824435023;0
396;1765904824435024;938,340000;1765904824435024;-3745,755000;1765904824435024;0
397;1765904824435025;-1397,760000;1765904824435025;-3932,175000;1765904824435025;0
398;1765904824435026;-4922,970000;1765904824435026;-3365,700000;1765904824435026;0
399;1765904824435027;-179,400000;1765904824435027;-3238,755000;1765904824435027;0
400;1765904824435028;-3,705000;1765904824435028;3820,245000;1765904824435028;0
401;1765904824435029;-1319,175000;1765904824435029;6389,565000;1765904824435029;0
402;1765904824435030;-2769,975000;1765904824435030;6389,565000;1765904824435030;0
403;1765904824435031;-184,860000;1765904824435031;3928,080000;1765904824435031;0
404;1765904824435032;531,960000;1765904824435032;-1216,020000;1765904824435032;0
405;1765904824435033;857,805000;1765904824435033;4061,460000;1765904824435033;0
406;1765904824435034;-289,380000;1765904824435034;-1836,120000;1765904824435034;0
407;1765904824435035;-27,300000;1765904824435035;-4317,105000;1765904824435035;0
408;1765904824435036;-30,225000;1765904824435036;-2995,395000;1765904824435036;0
409;1765904824435037;-30,225000;1765904824435036;5646,030000;1765904824435037;0
410;1765904824435038;-1567,800000;1765904824435038;-2067,195000;1765904824435038;0
411;1765904824435039;-578,955000;1765904824435039;-4464,720000;1765904824435039;0
412;1765904824488562;-578,955000;1765904824435039;-4479,150000;1765904824488562;0
413;1765904824488565;-3573,765000;1765904824488565;-4479,150000;1765904824488562;0
414;1765904824488566;-5146,635000;1765904824488566;-4280,640000;1765904824488566;0
415;1765904824488567;-5146,635000;1765904824488566;-4343,820000;1765904824488567;0
416;1765904824488568;-234,000000;1765904824488568;-4178,265000;1765904824488568;0
417;1765904824488569;2156,505000;1765904824488569;-4178,265000;1765904824488568;0
418;1765904824488570;4387,305000;1765904824488570;-4169,295000;1765904824488570;0
419;1765904824488571;4387,305000;1765904824488570;-3701,880000;1765904824488571;0
420;1765904824488572;4094,610000;1765904824488572;-3140,670000;1765904824488572;0
421;1765904824488573;976,755000;1765904824488573;3544,515000;1765904824488573;0
422;1765904824488574;2191,800000;1765904824488574;3544,515000;1765904824488573;0
423;1765904824488575;-1506,960000;1765904824488575;6389,565000;1765904824488575;0
424;1765904824488576;-279,825000;1765904824488576;6389,565000;1765904824488576;0
425;1765904824488577;-725,985000;1765904824488577;3604,965000;1765904824488577;0
426;1765904824488578;-620,685000;1765904824488578;-843,180000;1765904824488578;0
427;1765904824488580;-620,685000;1765904824488578;3922,035000;1765904824488580;0
428;1765904824488581;535,470000;1765904824488581;4023,045000;1765904824488581;0
429;1765904824488582;-2168,400000;1765904824488582;-1005,810000;1765904824488582;0
430;1765904824488583;-1065,090000;1765904824488583;-4276,545000;1765904824488583;0
431;1765904824488584;1058,460000;1765904824488584;-4276,545000;1765904824488583;0
432;1765904824488585;457,665000;1765904824488585;-2605,200000;1765904824488585;0
433;1765904824488586;457,665000;1765904824488585;5963,685000;1765904824488586;0
434;1765904824488587;-2247,570000;1765904824488587;-1970,865000;1765904824488587;0
435;1765904824488588;-2705,235000;1765904824488588;-1970,865000;1765904824488587;0
436;1765904824488589;-2705,235000;1765904824488588;-4552,470000;1765904824488589;0
437;1765904824490541;4151,745000;1765904824490541;-4552,470000;1765904824488589;0
438;1765904824490543;4151,745000;1765904824490541;-4327,245000;1765904824490543;0
439;1765904824490544;2033,265000;1765904824490544;-4288,635000;1765904824490544;0
440;1765904824490545;1336,530000;1765904824490545;-4078,620000;1765904824490545;0
441;1765904824490546;1985,685000;1765904824490546;-4291,560000;1765904824490546;0
442;1765904824490547;1922,310000;1765904824490547;-4291,560000;1765904824490546;0
443;1765904824490548;2035,215000;1765904824490548;-3799,770000;1765904824490548;0
444;1765904824490549;2405,325000;1765904824490549;-2917,395000;1765904824490549;0
445;1765904824490550;2405,325000;1765904824490549;3405,285000;1765904824490550;0
446;1765904824490551;1485,705000;1765904824490551;6389,565000;1765904824490551;0
447;1765904824490552;-3803,475000;1765904824490552;6389,565000;1765904824490552;0
448;1765904824490553;333,840000;1765904824490553;6221,085000;1765904824490553;0
449;1765904824490554;5389,995000;1765904824490554;482,040000;1765904824490554;0
450;1765904824490555;3704,610000;1765904824490555;6389,565000;1765904824490555;0
451;1765904824490556;5389,410000;1765904824490556;5533,905000;1765904824490556;0
452;1765904824490557;-1,950000;1765904824490557;-458,640000;1765904824490557;0
453;1765904824490558;-5806,515000;1765904824490558;-3592,485000;1765904824490558;0
454;1765904824490559;5389,410000;1765904824490559;-2033,460000;1765904824490559;0
455;1765904824490560;5389,020000;1765904824490560;4953,780000;1765904824490560;0
456;1765904824490561;1252,290000;1765904824490561;-2930,070000;1765904824490561;0
457;1765904824490562;1252,290000;1765904824490561;-323,505000;1765904824490562;0
458;1765904824493229;1252,290000;1765904824490561;-3805,230000;1765904824493229;0
459;1765904824493231;423,540000;1765904824493231;-3875,430000;1765904824493231;0
460;1765904824493232;-905,385000;1765904824493232;-3875,430000;1765904824493231;0
461;1765904824493233;-905,385000;1765904824493232;-3923,595000;1765904824493233;0
462;1765904824493234;-807,690000;1765904824493234;-3679,455000;1765904824493234;0
463;1765904824493235;-3765,060000;1765904824493235;-3790,995000;1765904824493235;0
464;1765904824493236;-758,940000;1765904824493236;-3061,890000;1765904824493236;0
465;1765904824493237;-306,735000;1765904824493237;-2135,640000;1765904824493237;0
466;1765904824493239;-1701,375000;1765904824493239;-2135,640000;1765904824493237;0
467;1765904824493240;-815,100000;1765904824493240;3589,560000;1765904824493240;0
468;1765904824493241;-2981,160000;1765904824493241;6389,565000;1765904824493241;0
469;1765904824493242;-4984,395000;1765904824493242;6389,565000;1765904824493242;0
470;1765904824493243;-4984,395000;1765904824493242;4180,215000;1765904824493243;0
471;1765904824493244;-4609,995000;1765904824493244;-393,315000;1765904824493244;0
472;1765904824493245;1151,475000;1765904824493245;5332,665000;1765904824493245;0
473;1765904824493246;5390,190000;1765904824493246;4171,050000;1765904824493246;0
474;1765904824493247;2745,210000;1765904824493247;-1019,460000;1765904824493247;0
475;1765904824493248;-1659,450000;1765904824493248;-1019,460000;1765904824493247;0
476;1765904824493249;415,545000;1765904824493249;-2382,900000;1765904824493249;0
477;1765904824493250;-2334,735000;1765904824493250;4970,160000;1765904824493250;0
478;1765904824493251;465,660000;1765904824493251;-1682,070000;1765904824493251;0
479;1765904824493252;-608,985000;1765904824493252;-4122,495000;1765904824493252;0
480;1765904824548907;-608,985000;1765904824493252;-4092,075000;1765904824548907;0
481;1765904824548909;-4081,155000;1765904824548909;-4092,075000;1765904824548907;0
482;1765904824548910;-4081,155000;1765904824548909;-4145,505000;1765904824548910;0
483;1765904824548911;-3553,485000;1765904824548911;-4310,085000;1765904824548911;0
484;1765904824548912;-4013,295000;1765904824548912;-4310,085000;1765904824548911;0
485;1765904824548914;-4013,295000;1765904824548912;-3927,105000;1765904824548914;0
486;1765904824548915;-3187,080000;1765904824548915;-4022,460000;1765904824548915;0
487;1765904824548916;-4828,395000;1765904824548916;-3323,580000;1765904824548916;0
488;1765904824548917;-2296,710000;1765904824548917;-3323,580000;1765904824548916;0
489;1765904824548918;-1423,695000;1765904824548918;-1293,045000;1765904824548918;0
490;1765904824548919;-1423,695000;1765904824548918;3317,730000;1765904824548919;0
491;1765904824548920;267,540000;1765904824548920;6389,565000;1765904824548920;0
492;1765904824548921;5391,555000;1765904824548921;6389,565000;1765904824548921;0
493;1765904824548922;1298,310000;1765904824548922;4140,825000;1765904824548922;0
494;1765904824548923;1754,220000;1765904824548923;-84,435000;1765904824548923;0
495;1765904824548924;2974,140000;1765904824548924;4948,515000;1765904824548924;0
496;1765904824548925;1718,535000;1765904824548925;2982,135000;1765904824548925;0
497;1765904824548926;-1792,440000;1765904824548926;-392,535000;1765904824548926;0
498;1765904824548927;2605,980000;1765904824548927;-2599,155000;1765904824548927;0
499;1765904824548928;2552,550000;1765904824548928;-2599,155000;1765904824548927;0
500;1765904824548929;2411,370000;1765904824548929;-2927,340000;1765904824548929;0
501;1765904824548930;2411,370000;1765904824548929;5352,165000;1765904824548930;0
502;1765904824548931;280,410000;1765904824548931;-1385,280000;1765904824548931;0
503;1765904824548932;-78,195000;1765904824548932;-3747,510000;1765904824548932;0
504;1765904824552066;-2326,935000;1765904824552066;-3747,510000;1765904824548932;0
505;1765904824552068;-2326,935000;1765904824552066;-3667,560000;1765904824552068;0
506;1765904824552069;-5144,295000;1765904824552069;-3705,975000;1765904824552069;0
507;1765904824552070;1000,545000;1765904824552070;-3567,330000;1765904824552070;0
508;1765904824552071;-734,760000;1765904824552071;-3824,535000;1765904824552071;0
509;1765904824552072;-5034,705000;1765904824552072;-3246,945000;1765904824552072;0
510;1765904824552073;1185,405000;1765904824552073;-1418,040000;1765904824552073;0
511;1765904824552074;538,590000;1765904824552074;3973,320000;1765904824552074;0
512;1765904824552075;1899,105000;1765904824552075;6389,565000;1765904824552075;0
513;1765904824552076;1983,345000;1765904824552076;6389,565000;1765904824552076;0
514;1765904824552077;3163,485000;1765904824552077;6010,680000;1765904824552077;0
515;1765904824552078;974,805000;1765904824552078;440,310000;1765904824552078;0
516;1765904824552079;1687,920000;1765904824552079;5492,175000;1765904824552079;0
517;1765904824552080;618,345000;1765904824552080;-772,590000;1765904824552080;0
518;1765904824552081;1704,885000;1765904824552081;-3779,490000;1765904824552081;0
519;1765904824552082;1904,760000;1765904824552082;-2392,845000;1765904824552082;0
520;1765904824552083;1145,430000;1765904824552083;6389,565000;1765904824552083;0
521;1765904824552084;175,110000;1765904824552084;-1301,625000;1765904824552084;0
522;1765904824552085;1831,635000;1765904824552085;-2354,430000;1765904824552085;0
523;1765904824553725;1831,635000;1765904824552085;-4324,515000;1765904824553725;0
524;1765904824553727;-1756,950000;1765904824553727;-4324,515000;1765904824553725;0
525;1765904824553728;-1756,950000;1765904824553727;-4091,490000;1765904824553728;0
526;1765904824553729;-4115,670000;1765904824553729;-4422,990000;1765904824553729;0
527;1765904824553730;-756,990000;1765904824553730;-4041,960000;1765904824553730;0
528;1765904824553732;1415,505000;1765904824553732;-4041,960000;1765904824553730;0
529;1765904824553733;-1419,015000;1765904824553733;-4120,545000;1765904824553733;0
530;1765904824553734;-890,760000;1765904824553734;-3402,555000;1765904824553734;0
531;1765904824553735;-1591,005000;1765904824553735;-3359,460000;1765904824553735;0
532;1765904824553736;-303,030000;1765904824553736;3411,330000;1765904824553736;0
533;1765904824553737;-299,325000;1765904824553737;6389,565000;1765904824553737;0
534;1765904824553738;584,805000;1765904824553738;6389,565000;1765904824553738;0
535;1765904824553739;640,380000;1765904824553739;4997,460000;1765904824553739;0
536;1765904824553740;122,460000;1765904824553740;336,375000;1765904824553740;0
537;1765904824553741;-933,075000;1765904824553741;5712,525000;1765904824553741;0
538;1765904824553742;-686,400000;1765904824553742;-358,410000;1765904824553742;0
539;1765904824553743;-1037,595000;1765904824553743;-3480,945000;1765904824553743;0
540;1765904824553744;-66,690000;1765904824553744;-2062,905000;1765904824553744;0
541;1765904824553745;-932,490000;1765904824553745;5955,690000;1765904824553745;0
542;1765904824553746;-2176,005000;1765904824553746;-1869,465000;1765904824553746;0
543;1765904824553747;-3302,715000;1765904824553747;-453,960000;1765904824553747;0
544;1765904824609520;-3302,715000;1765904824553747;-3956,745000;1765904824609520;0
545;1765904824609526;-2168,790000;1765904824609526;-3956,745000;1765904824609520;0
546;1765904824609527;-2168,790000;1765904824609526;-3781,050000;1765904824609527;0
547;1765904824609529;-2551,770000;1765904824609529;-3781,050000;1765904824609527;0
548;1765904824609533;-2551,770000;1765904824609529;-4047,615000;1765904824609533;0
549;1765904824609535;-422,955000;1765904824609535;-4047,615000;1765904824609533;0
550;1765904824609536;-422,955000;1765904824609535;-3659,955000;1765904824609536;0
551;1765904824609537;-3025,815000;1765904824609537;-3659,955000;1765904824609536;0
552;1765904824609538;-3025,815000;1765904824609537;-3821,610000;1765904824609538;0
553;1765904824609540;-2508,285000;1765904824609540;-3821,610000;1765904824609538;0
554;1765904824609541;-2508,285000;1765904824609540;-3458,715000;1765904824609541;0
555;1765904824609542;-4258,995000;1765904824609542;-3458,715000;1765904824609541;0
556;1765904824609543;-4258,995000;1765904824609542;-1828,125000;1765904824609543;0
557;1765904824609545;-1028,820000;1765904824609545;3571,035000;1765904824609545;0
558;1765904824609547;4123,275000;1765904824609547;3571,035000;1765904824609545;0
559;1765904824609548;4123,275000;1765904824609547;6389,565000;1765904824609548;0
560;1765904824609562;3574,935000;1765904824609562;6389,565000;1765904824609548;0
561;1765904824609563;3574,935000;1765904824609562;6389,565000;1765904824609563;0
562;1765904824609565;-368,940000;1765904824609565;6389,565000;1765904824609563;0
563;1765904824609566;-368,940000;1765904824609565;5603,325000;1765904824609566;0
564;1765904824609567;1301,235000;1765904824609567;5603,325000;1765904824609566;0
565;1765904824609568;1301,235000;1765904824609567;780,390000;1765904824609568;0
566;1765904824609569;2503,410000;1765904824609569;780,390000;1765904824609568;0
567;1765904824609570;2503,410000;1765904824609569;6087,705000;1765904824609570;0
568;1765904824609571;2896,725000;1765904824609571;6087,705000;1765904824609570;0
569;1765904824609572;2896,725000;1765904824609571;5387,265000;1765904824609572;0
570;1765904824609573;-568,620000;1765904824609573;5387,265000;1765904824609572;0
571;1765904824609574;-568,620000;1765904824609573;698,685000;1765904824609574;0
572;1765904824609576;-3294,720000;1765904824609576;-2724,930000;1765904824609576;0
573;1765904824609578;-4802,070000;1765904824609578;-2724,930000;1765904824609576;0
574;1765904824609579;-4802,070000;1765904824609578;-2591,745000;1765904824609579;0
575;1765904824609580;903,630000;1765904824609580;-2591,745000;1765904824609579;0
576;1765904824609581;903,630000;1765904824609580;3382,665000;1765904824609581;0
577;1765904824609583;4614,285000;1765904824609583;-2013,570000;1765904824609583;0
578;1765904824609585;1579,890000;1765904824609585;-2013,570000;1765904824609583;0
579;1765904824609586;1579,890000;1765904824609585;382,200000;1765904824609586;0
580;1765904824610963;1598,610000;1765904824610963;382,200000;1765904824609586;0
581;1765904824610966;1598,610000;1765904824610963;-3674,970000;1765904824610966;0
582;1765904824610968;-358,605000;1765904824610968;-3674,970000;1765904824610966;0
583;1765904824610969;-358,605000;1765904824610968;-3725,865000;1765904824610969;0
584;1765904824610971;916,110000;1765904824610971;-3725,865000;1765904824610969;0
585;1765904824610972;916,110000;1765904824610971;-3418,545000;1765904824610972;0
586;1765904824610973;1540,500000;1765904824610973;-3418,545000;1765904824610972;0
587;1765904824610974;1540,500000;1765904824610973;-3631,485000;1765904824610974;0
588;1765904824610975;3923,010000;1765904824610975;-3631,485000;1765904824610974;0
589;1765904824610976;3923,010000;1765904824610975;-3105,765000;1765904824610976;0
590;1765904824610977;2817,750000;1765904824610977;-3105,765000;1765904824610976;0
591;1765904824610978;2817,750000;1765904824610977;-2532,075000;1765904824610978;0
592;1765904824610979;2370,420000;1765904824610979;-2532,075000;1765904824610978;0
593;1765904824610980;2370,420000;1765904824610979;3756,285000;1765904824610980;0
594;1765904824610981;-1495,455000;1765904824610981;6389,565000;1765904824610981;0
595;1765904824610983;795,795000;1765904824610983;6389,565000;1765904824610983;0
596;1765904824610984;1125,540000;1765904824610984;6389,565000;1765904824610983;0
597;1765904824610985;1125,540000;1765904824610984;6148,155000;1765904824610985;0
598;1765904824610986;-5191,680000;1765904824610986;6148,155000;1765904824610985;0
599;1765904824610987;-5191,680000;1765904824610986;199,485000;1765904824610987;0
600;1765904824610988;-179,400000;1765904824610988;199,485000;1765904824610987;0
601;1765904824610989;-179,400000;1765904824610988;6389,565000;1765904824610989;0
602;1765904824610990;4237,155000;1765904824610990;5595,525000;1765904824610990;0
603;1765904824610991;4610,580000;1765904824610991;5595,525000;1765904824610990;0
604;1765904824610992;4610,580000;1765904824610991;-1525,680000;1765904824610992;0
605;1765904824610993;1307,670000;1765904824610993;-1525,680000;1765904824610992;0
606;1765904824610994;1307,670000;1765904824610993;-3684,135000;1765904824610994;0
607;1765904824610995;1780,155000;1765904824610995;-3684,135000;1765904824610994;0
608;1765904824610996;1780,155000;1765904824610995;-2093,325000;1765904824610996;0
609;1765904824610997;-204,360000;1765904824610997;5631,795000;1765904824610997;0
610;1765904824610999;-2485,860000;1765904824610999;-2564,055000;1765904824610999;0
611;1765904824611000;2477,280000;1765904824611000;-2564,055000;1765904824610999;0
612;1765904824611001;2477,280000;1765904824611000;-1878,630000;1765904824611001;0
613;1765904824613411;2477,280000;1765904824611000;-4048,785000;1765904824613411;0
614;1765904824613414;3620,565000;1765904824613414;-4048,785000;1765904824613411;0
615;1765904824613415;3620,565000;1765904824613414;-3929,055000;1765904824613415;0
616;1765904824613416;1492,920000;1765904824613416;-3929,055000;1765904824613415;0
617;1765904824613417;1492,920000;1765904824613416;-4102,020000;1765904824613417;0
618;1765904824613418;2840,565000;1765904824613418;-4102,020000;1765904824613417;0
619;1765904824613419;2840,565000;1765904824613418;-3899,610000;1765904824613419;0
620;1765904824613420;3248,115000;1765904824613420;-3889,080000;1765904824613420;0
621;1765904824613422;1806,480000;1765904824613422;-3889,080000;1765904824613420;0
622;1765904824613423;1806,480000;1765904824613422;-3354,585000;1765904824613423;0
623;1765904824613424;-541,125000;1765904824613424;-3354,585000;1765904824613423;0
624;1765904824613425;-541,125000;1765904824613424;-2981,550000;1765904824613425;0
625;1765904824613426;-935,415000;1765904824613426;-2981,550000;1765904824613425;0
626;1765904824613427;-935,415000;1765904824613426;3451,890000;1765904824613427;0
627;1765904824613428;-2399,085000;1765904824613428;6389,565000;1765904824613428;0
628;1765904824613431;-3415,620000;1765904824613431;6389,565000;1765904824613428;0
629;1765904824613432;-3415,620000;1765904824613431;6389,565000;1765904824613432;0
630;1765904824613433;179,400000;1765904824613433;6389,565000;1765904824613432;0
631;1765904824613434;179,400000;1765904824613433;5366,205000;1765904824613434;0
632;1765904824613435;4896,645000;1765904824613435;603,525000;1765904824613435;0
633;1765904824613437;4787,445000;1765904824613437;6389,565000;1765904824613437;0
634;1765904824613438;3751,605000;1765904824613438;6389,565000;1765904824613437;0
635;1765904824613439;3751,605000;1765904824613438;5695,950000;1765904824613439;0
636;1765904824613440;4118,010000;1765904824613440;5695,950000;1765904824613439;0
637;1765904824613441;4118,010000;1765904824613440;-710,190000;1765904824613441;0
638;1765904824613442;4234,230000;1765904824613442;-710,190000;1765904824613441;0
639;1765904824613443;4234,230000;1765904824613442;-3557,580000;1765904824613443;0
640;1765904824613444;3424,395000;1765904824613444;-2069,730000;1765904824613444;0
641;1765904824613445;2492,685000;1765904824613445;-2069,730000;1765904824613444;0
642;1765904824613446;2492,685000;1765904824613445;5877,300000;1765904824613446;0
643;1765904824613447;2500,290000;1765904824613447;5877,300000;1765904824613446;0
644;1765904824613448;2500,290000;1765904824613447;-1435,200000;1765904824613448;0
645;1765904824613449;1935,375000;1765904824613449;-2548,260000;1765904824613449;0
646;1765904824668179;1935,375000;1765904824613449;-3954,795000;1765904824668179;0
647;1765904824668182;-9,945000;1765904824668182;-3954,795000;1765904824668179;0
648;1765904824668183;-9,945000;1765904824668182;-3800,550000;1765904824668183;0
649;1765904824668184;-530,205000;1765904824668184;-4063,995000;1765904824668184;0
650;1765904824668185;1321,125000;1765904824668185;-3724,500000;1765904824668185;0
651;1765904824668186;-1706,250000;1765904824668186;-3724,500000;1765904824668185;0
652;1765904824668187;-1437,150000;1765904824668187;-3880,305000;1765904824668187;0
653;1765904824668188;-1437,150000;1765904824668187;-3141,255000;1765904824668188;0
654;1765904824668189;-2448,615000;1765904824668189;-3314,220000;1765904824668189;0
655;1765904824668190;-848,835000;1765904824668190;3852,420000;1765904824668190;0
656;1765904824668191;2647,905000;1765904824668191;6389,565000;1765904824668191;0
657;1765904824668192;1999,725000;1765904824668192;6389,565000;1765904824668191;0
658;1765904824668194;1999,725000;1765904824668192;6389,565000;1765904824668194;0
659;1765904824668195;2450,955000;1765904824668195;5972,460000;1765904824668195;0
660;1765904824668196;2951,520000;1765904824668196;544,635000;1765904824668196;0
661;1765904824668197;2863,575000;1765904824668197;6389,565000;1765904824668197;0
662;1765904824668198;2559,570000;1765904824668198;5496,075000;1765904824668198;0
663;1765904824668199;2535,000000;1765904824668199;5496,075000;1765904824668198;0
664;1765904824668200;2483,910000;1765904824668200;-845,910000;1765904824668200;0
665;1765904824668201;2483,910000;1765904824668200;-3786,705000;1765904824668201;0
666;1765904824668202;1161,420000;1765904824668202;-2256,930000;1765904824668202;0
667;1765904824668203;1990,755000;1765904824668203;5121,870000;1765904824668203;0
668;1765904824668204;1926,990000;1765904824668204;5121,870000;1765904824668203;0
669;1765904824668205;1926,990000;1765904824668204;-2310,945000;1765904824668205;0
670;1765904824668206;2478,645000;1765904824668206;-1426,230000;1765904824668206;0
671;1765904824670385;1221,285000;1765904824670385;-1426,230000;1765904824668206;0
672;1765904824670386;1221,285000;1765904824670385;-4255,485000;1765904824670386;0
673;1765904824670387;-837,915000;1765904824670387;-4255,485000;1765904824670386;0
674;1765904824670388;1035,645000;1765904824670388;-4032,405000;1765904824670388;0
675;1765904824670389;1035,645000;1765904824670388;-3997,305000;1765904824670389;0
676;1765904824670390;1603,485000;1765904824670390;-4164,810000;1765904824670390;0
677;1765904824670391;603,915000;1765904824670391;-3642,210000;1765904824670391;0
678;1765904824670392;1721,655000;1765904824670392;-3144,765000;1765904824670392;0
679;1765904824670393;3008,850000;1765904824670393;3542,955000;1765904824670393;0
680;1765904824670394;2678,910000;1765904824670394;6389,565000;1765904824670394;0
681;1765904824670395;2046,330000;1765904824670395;6389,565000;1765904824670395;0
682;1765904824670396;2015,130000;1765904824670396;5035,290000;1765904824670396;0
683;1765904824670397;1426,425000;1765904824670397;418,665000;1765904824670397;0
684;1765904824670398;983,385000;1765904824670398;6389,565000;1765904824670398;0
685;1765904824670399;384,345000;1765904824670399;-287,625000;1765904824670399;0
686;1765904824670400;-263,640000;1765904824670400;-3383,640000;1765904824670400;0
687;1765904824670401;-889,785000;1765904824670401;-2157,870000;1765904824670401;0
688;1765904824670402;-3227,835000;1765904824670402;6389,565000;1765904824670402;0
689;1765904824670403;222,300000;1765904824670403;-1178,580000;1765904824670403;0
690;1765904824670404;4079,790000;1765904824670404;-1270,230000;1765904824670404;0
691;1765904824673272;4079,790000;1765904824670404;-3930,030000;1765904824673272;0
692;1765904824673274;2855,580000;1765904824673274;-3930,030000;1765904824673272;0
693;1765904824673275;2358,135000;1765904824673275;-3813,225000;1765904824673275;0
694;1765904824673276;4617,405000;1765904824673276;-3890,835000;1765904824673276;0
695;1765904824673277;4617,405000;1765904824673276;-3769,155000;1765904824673277;0
696;1765904824673278;4503,525000;1765904824673278;-3853,980000;1765904824673278;0
697;1765904824673279;2799,030000;1765904824673279;-2976,480000;1765904824673279;0
698;1765904824673280;4079,985000;1765904824673280;-3257,085000;1765904824673280;0
699;1765904824673281;-3364,335000;1765904824673281;3753,945000;1765904824673281;0
700;1765904824673282;-2046,720000;1765904824673282;3753,945000;1765904824673281;0
701;1765904824673283;-1798,290000;1765904824673283;6389,565000;1765904824673283;0
702;1765904824673284;-1798,290000;1765904824673283;6389,565000;1765904824673284;0
703;1765904824673285;-857,610000;1765904824673285;5249,400000;1765904824673285;0
704;1765904824673286;-2715,765000;1765904824673286;495,105000;1765904824673286;0
705;1765904824673287;245,115000;1765904824673287;495,105000;1765904824673286;0
706;1765904824673288;427,245000;1765904824673288;6389,565000;1765904824673288;0
707;1765904824673289;427,245000;1765904824673288;5545,605000;1765904824673289;0
708;1765904824673290;-2885,220000;1765904824673290;-55,770000;1765904824673290;0
709;1765904824673291;-431,340000;1765904824673291;-3250,650000;1765904824673291;0
710;1765904824673292;5385,900000;1765904824673292;-1947,660000;1765904824673292;0
711;1765904824673293;5385,705000;1765904824673293;5144,295000;1765904824673293;0
712;1765904824673294;3059,940000;1765904824673294;-1405,755000;1765904824673294;0
713;1765904824673295;1702,155000;1765904824673295;-3024,450000;1765904824673295;0
714;1765904824729134;1702,155000;1765904824673295;-3826,485000;1765904824729134;0
715;1765904824729137;-801,255000;1765904824729137;-3826,485000;1765904824729134;0
716;1765904824729138;-801,255000;1765904824729137;-3645,525000;1765904824729138;0
717;1765904824729140;-1448,850000;1765904824729140;-3822,390000;1765904824729140;0
718;1765904824729141;2534,025000;1765904824729141;-3822,390000;1765904824729140;0
719;1765904824729142;-4123,470000;1765904824729142;-3628,170000;1765904824729142;0
720;1765904824729143;-4123,470000;1765904824729142;-3776,760000;1765904824729143;0
721;1765904824729144;-431,925000;1765904824729144;-2824,965000;1765904824729144;0
722;1765904824729145;-423,735000;1765904824729145;-2221,635000;1765904824729145;0
723;1765904824729146;1124,955000;1765904824729146;3433,755000;1765904824729146;0
724;1765904824729147;975,780000;1765904824729147;6389,565000;1765904824729147;0
725;1765904824729148;2225,925000;1765904824729148;6389,565000;1765904824729148;0
726;1765904824729149;-4083,105000;1765904824729149;5695,755000;1765904824729149;0
727;1765904824729150;-5497,245000;1765904824729150;450,645000;1765904824729150;0
728;1765904824729151;-3108,885000;1765904824729151;6389,565000;1765904824729151;0
729;1765904824729152;2359,500000;1765904824729152;5147,805000;1765904824729152;0
730;1765904824729153;4520,490000;1765904824729153;-460,785000;1765904824729153;0
731;1765904824729154;5385,510000;1765904824729154;-3095,040000;1765904824729154;0
732;1765904824729155;-1071,135000;1765904824729155;-3739,710000;1765904824729155;0
733;1765904824729156;1681,290000;1765904824729156;3145,155000;1765904824729156;0
734;1765904824729157;1739,010000;1765904824729157;-1186,575000;1765904824729157;0
735;1765904824729158;2323,620000;1765904824729158;-4219,800000;1765904824729158;0
736;1765904824730396;1898,520000;1765904824730396;-4219,800000;1765904824729158;0
737;1765904824730397;1898,520000;1765904824730396;-4293,900000;1765904824730397;0
738;1765904824730398;95,940000;1765904824730398;-4207,710000;1765904824730398;0
739;1765904824730399;3492,060000;1765904824730399;-4207,710000;1765904824730398;0
740;1765904824730400;2342,925000;1765904824730400;-3918,915000;1765904824730400;0
741;1765904824730401;2342,925000;1765904824730400;-4049,175000;1765904824730401;0
742;1765904824730402;1791,270000;1765904824730402;-4049,175000;1765904824730401;0
743;1765904824730403;1791,270000;1765904824730402;-3517,605000;1765904824730403;0
744;1765904824730404;-839,085000;1765904824730404;-3550,950000;1765904824730404;0
745;1765904824730405;2182,830000;1765904824730405;3699,150000;1765904824730405;0
746;1765904824730406;-5906,550000;1765904824730406;6389,565000;1765904824730406;0
747;1765904824730407;-246,480000;1765904824730407;6389,565000;1765904824730407;0
748;1765904824730408;5384,535000;1765904824730408;4985,955000;1765904824730408;0
749;1765904824730409;-1083,420000;1765904824730409;-98,670000;1765904824730409;0
750;1765904824730410;-3005,145000;1765904824730410;6389,565000;1765904824730410;0
751;1765904824730411;-3005,145000;1765904824730410;4659,135000;1765904824730411;0
752;1765904824730412;-1158,690000;1765904824730412;-1242,540000;1765904824730412;0
753;1765904824730413;35,685000;1765904824730413;-4305,210000;1765904824730413;0
754;1765904824730414;91,455000;1765904824730414;-1755,195000;1765904824730414;0
755;1765904824730415;-176,865000;1765904824730415;6014,190000;1765904824730415;0
756;1765904824730416;-2135,055000;1765904824730416;-881,400000;1765904824730416;0
757;1765904824730417;-2135,055000;1765904824730416;1412,970000;1765904824730417;0
758;1765904824733308;-2135,055000;1765904824730416;-4099,680000;1765904824733308;0
759;1765904824733310;-1832,610000;1765904824733310;-4099,680000;1765904824733308;0
760;1765904824733311;-2122,380000;1765904824733311;-4015,440000;1765904824733311;0
761;1765904824733312;-2122,380000;1765904824733311;-4077,645000;1765904824733312;0
762;1765904824733313;-418,665000;1765904824733313;-3833,505000;1765904824733313;0
763;1765904824733314;-3213,600000;1765904824733314;-3833,505000;1765904824733313;0
764;1765904824733315;-906,165000;1765904824733315;-3965,910000;1765904824733315;0
765;1765904824733316;-906,165000;1765904824733315;-2849,340000;1765904824733316;0
766;1765904824733317;2205,255000;1765904824733317;-3147,690000;1765904824733317;0
767;1765904824733318;5024,370000;1765904824733318;3762,135000;1765904824733318;0
768;1765904824733319;4815,915000;1765904824733319;6389,565000;1765904824733319;0
769;1765904824733320;-3804,840000;1765904824733320;6389,565000;1765904824733320;0
770;1765904824733321;-1663,545000;1765904824733321;4498,845000;1765904824733321;0
771;1765904824733322;-1810,575000;1765904824733322;254,085000;1765904824733322;0
772;1765904824733323;-1810,575000;1765904824733322;6246,240000;1765904824733323;0
773;1765904824733324;-1856,790000;1765904824733324;3785,535000;1765904824733324;0
774;1765904824733325;-655,395000;1765904824733325;-447,915000;1765904824733325;0
775;1765904824733326;-822,315000;1765904824733326;-3112,980000;1765904824733326;0
776;1765904824733327;-1627,665000;1765904824733327;-2340,000000;1765904824733327;0
777;1765904824733328;-842,985000;1765904824733328;-2340,000000;1765904824733327;0
778;1765904824733329;-842,985000;1765904824733328;5499,585000;1765904824733329;0
779;1765904824733330;-181,740000;1765904824733330;-1429,155000;1765904824733330;0
780;1765904824733331;-802,425000;1765904824733331;567,060000;1765904824733331;0
781;1765904824859192;-802,425000;1765904824733331;-3756,480000;1765904824859192;0
782;1765904824859195;-4350,060000;1765904824859195;-3756,480000;1765904824859192;0
783;1765904824859196;-4350,060000;1765904824859195;-3633,435000;1765904824859196;0
784;1765904824859197;-4647,240000;1765904824859197;-3633,435000;1765904824859196;0
785;1765904824859198;-4647,240000;1765904824859197;-3855,930000;1765904824859198;0
786;1765904824859199;304,200000;1765904824859199;-3855,930000;1765904824859198;0
787;1765904824859200;304,200000;1765904824859199;-3602,235000;1765904824859200;0
788;1765904824859201;1829,295000;1765904824859201;-3602,235000;1765904824859200;0
789;1765904824859202;1829,295000;1765904824859201;-3549,780000;1765904824859202;0
790;1765904824859203;-311,415000;1765904824859203;-3549,780000;1765904824859202;0
791;1765904824859204;-311,415000;1765904824859203;-2258,100000;1765904824859204;0
792;1765904824859205;1279,200000;1765904824859205;-2154,750000;1765904824859205;0
793;1765904824859206;2929,485000;1765904824859206;-2154,750000;1765904824859205;0
794;1765904824859207;2929,485000;1765904824859206;3718,065000;1765904824859207;0
795;1765904824859208;3404,505000;1765904824859208;3718,065000;1765904824859207;0
796;1765904824859209;3404,505000;1765904824859208;6389,565000;1765904824859209;0
797;1765904824859210;1785,030000;1765904824859210;6389,565000;1765904824859210;0
798;1765904824859211;760,305000;1765904824859211;6389,565000;1765904824859210;0
799;1765904824859212;760,305000;1765904824859211;6389,565000;1765904824859212;0
800;1765904824859213;3474,900000;1765904824859213;6389,565000;1765904824859212;0
801;1765904824859214;3474,900000;1765904824859213;485,355000;1765904824859214;0
802;1765904824859215;1889,745000;1765904824859215;485,355000;1765904824859214;0
803;1765904824859216;1889,745000;1765904824859215;6389,565000;1765904824859216;0
804;1765904824859217;3610,035000;1765904824859217;5248,035000;1765904824859217;0
805;1765904824859219;3256,500000;1765904824859219;-377,520000;1765904824859219;0
806;1765904824859220;-357,630000;1765904824859220;-377,520000;1765904824859219;0
807;1765904824859221;-357,630000;1765904824859220;-3956,745000;1765904824859221;0
808;1765904824859222;-1726,530000;1765904824859222;-1541,865000;1765904824859222;0
809;1765904824859223;-2617,095000;1765904824859223;-1541,865000;1765904824859222;0
810;1765904824859224;-2617,095000;1765904824859223;6137,235000;1765904824859224;0
811;1765904824859225;-1312,545000;1765904824859225;-2010,450000;1765904824859225;0
812;1765904824859226;995,475000;1765904824859226;-2010,450000;1765904824859225;0
813;1765904824859227;995,475000;1765904824859226;46,215000;1765904824859227;0
814;1765904824861002;5385,705000;1765904824861002;46,215000;1765904824859227;0
815;1765904824861004;5385,705000;1765904824861002;-3913,260000;1765904824861004;0
816;1765904824861005;4198,935000;1765904824861005;-3736,785000;1765904824861005;0
817;1765904824861006;3306,810000;1765904824861006;-3736,785000;1765904824861005;0
818;1765904824861007;3306,810000;1765904824861006;-3550,560000;1765904824861007;0
819;1765904824861010;2304,510000;1765904824861010;-3808,350000;1765904824861010;0
820;1765904824861011;2763,735000;1765904824861011;-2586,870000;1765904824861011;0
821;1765904824861012;2884,440000;1765904824861012;-1883,700000;1765904824861012;0
822;1765904824861013;2613,000000;1765904824861013;3706,365000;1765904824861013;0
823;1765904824861014;-1313,130000;1765904824861014;6389,565000;1765904824861014;0
824;1765904824861015;-2598,375000;1765904824861015;6389,565000;1765904824861015;0
825;1765904824861016;536,250000;1765904824861016;6389,565000;1765904824861015;0
826;1765904824861017;-782,340000;1765904824861017;6389,565000;1765904824861017;0
827;1765904824861018;-655,980000;1765904824861018;765,180000;1765904824861018;0
828;1765904824861019;-655,980000;1765904824861018;6389,565000;1765904824861019;0
829;1765904824861020;1995,435000;1765904824861020;3253,965000;1765904824861020;0
830;1765904824861021;-2100,345000;1765904824861021;-59,865000;1765904824861021;0
831;1765904824861022;-3247,140000;1765904824861022;-3558,945000;1765904824861022;0
832;1765904824861023;263,640000;1765904824861023;-1839,435000;1765904824861023;0
833;1765904824861024;2318,355000;1765904824861024;5310,435000;1765904824861024;0
834;1765904824861025;3755,310000;1765904824861025;-1224,210000;1765904824861025;0
835;1765904824861026;3121,755000;1765904824861026;606,840000;1765904824861026;0
836;1765904824861746;3121,755000;1765904824861026;-3754,920000;1765904824861746;0
837;1765904824861748;-5027,490000;1765904824861748;-3754,920000;1765904824861746;0
838;1765904824861749;-5027,490000;1765904824861748;-3614,130000;1765904824861749;0
839;1765904824861750;-2498,535000;1765904824861750;-3614,130000;1765904824861749;0
840;1765904824861751;-2498,535000;1765904824861750;-3397,095000;1765904824861751;0
841;1765904824861752;3862,170000;1765904824861752;-3397,095000;1765904824861751;0
842;1765904824861753;3862,170000;1765904824861752;-3398,460000;1765904824861753;0
843;1765904824861754;5384,535000;1765904824861754;-3398,460000;1765904824861753;0
844;1765904824861755;5384,535000;1765904824861754;-3606,525000;1765904824861755;0
845;1765904824861756;1104,090000;1765904824861756;-2412,150000;1765904824861756;0
846;1765904824861757;-1912,170000;1765904824861757;-2412,150000;1765904824861756;0
847;1765904824861758;-1912,170000;1765904824861757;-1233,375000;1765904824861758;0
848;1765904824861759;-1746,225000;1765904824861759;-1233,375000;1765904824861758;0
849;1765904824861760;-1746,225000;1765904824861759;3938,415000;1765904824861760;0
850;1765904824861761;-3990,870000;1765904824861761;3938,415000;1765904824861760;0
851;1765904824861762;-3990,870000;1765904824861761;6389,565000;1765904824861762;0
852;1765904824861763;-864,435000;1765904824861763;6389,565000;1765904824861762;0
853;1765904824861765;-864,435000;1765904824861763;6389,565000;1765904824861765;0
854;1765904824861766;2468,700000;1765904824861766;6389,565000;1765904824861765;0
855;1765904824861767;2468,700000;1765904824861766;6035,055000;1765904824861767;0
856;1765904824861768;1601,535000;1765904824861768;853,320000;1765904824861768;0
857;1765904824861770;862,875000;1765904824861770;6389,565000;1765904824861770;0
858;1765904824861772;4328,025000;1765904824861772;5311,800000;1765904824861772;0
859;1765904824861773;-1943,370000;1765904824861773;5311,800000;1765904824861772;0
860;1765904824861774;-1943,370000;1765904824861773;-801,060000;1765904824861774;0
861;1765904824861775;-1739,595000;1765904824861775;-3323,190000;1765904824861775;0
862;1765904824861776;1698,840000;1765904824861776;-3323,190000;1765904824861775;0
863;1765904824861777;1698,840000;1765904824861776;-1793,220000;1765904824861777;0
864;1765904824861778;2168,790000;1765904824861778;6257,550000;1765904824861778;0
865;1765904824861779;1821,495000;1765904824861779;6257,550000;1765904824861778;0
866;1765904824861780;1821,495000;1765904824861779;-1072,500000;1765904824861780;0
867;1765904824861781;1194,960000;1765904824861781;-1072,500000;1765904824861780;0
868;1765904824861782;1194,960000;1765904824861781;1269,060000;1765904824861782;0
869;1765904824866378;1194,960000;1765904824861781;-4379,700000;1765904824866378;0
870;1765904824866382;1320,150000;1765904824866382;-4379,700000;1765904824866378;0
871;1765904824866383;1320,150000;1765904824866382;-4113,525000;1765904824866383;0
872;1765904824866385;-298,350000;1765904824866385;-4219,995000;1765904824866385;0
873;1765904824866386;702,195000;1765904824866386;-4219,995000;1765904824866385;0
874;1765904824866387;702,195000;1765904824866386;-3854,760000;1765904824866387;0
875;1765904824866388;834,795000;1765904824866388;-3854,760000;1765904824866387;0
876;1765904824866389;834,795000;1765904824866388;-4043,715000;1765904824866389;0
877;1765904824866390;-1153,230000;1765904824866390;-4043,715000;1765904824866389;0
878;1765904824866391;-1153,230000;1765904824866390;-3238,755000;1765904824866391;0
879;1765904824866392;-1312,155000;1765904824866392;-1486,290000;1765904824866392;0
880;1765904824866393;1322,685000;1765904824866393;-1486,290000;1765904824866392;0
881;1765904824866394;1322,685000;1765904824866393;3341,520000;1765904824866394;0
882;1765904824866395;-2759,835000;1765904824866395;6389,565000;1765904824866395;0
883;1765904824866396;-1138,995000;1765904824866396;6389,565000;1765904824866395;0
884;1765904824866397;-1138,995000;1765904824866396;6389,565000;1765904824866397;0
885;1765904824866399;2325,375000;1765904824866399;4694,625000;1765904824866399;0
886;1765904824866401;582,075000;1765904824866401;260,130000;1765904824866401;0
887;1765904824866402;551,070000;1765904824866402;260,130000;1765904824866401;0
888;1765904824866403;551,070000;1765904824866402;6389,565000;1765904824866403;0
889;1765904824866404;523,575000;1765904824866404;4733,430000;1765904824866404;0
890;1765904824866405;-172,575000;1765904824866405;4733,430000;1765904824866404;0
891;1765904824866406;-172,575000;1765904824866405;-876,525000;1765904824866406;0
892;1765904824866407;-508,170000;1765904824866407;-3790,995000;1765904824866407;0
893;1765904824866408;202,995000;1765904824866408;-3790,995000;1765904824866407;0
894;1765904824866409;202,995000;1765904824866408;-1599,780000;1765904824866409;0
895;1765904824866410;1392,495000;1765904824866410;5825,820000;1765904824866410;0
896;1765904824866411;2834,325000;1765904824866411;5825,820000;1765904824866410;0
897;1765904824866412;2834,325000;1765904824866411;-1913,340000;1765904824866412;0
898;1765904824866413;2122,965000;1765904824866413;-1913,340000;1765904824866412;0
899;1765904824866414;2122,965000;1765904824866413;1311,765000;1765904824866414;0
900;1765904824867862;2122,965000;1765904824866413;-3658,395000;1765904824867862;0
901;1765904824867866;1145,040000;1765904824867866;-3658,395000;1765904824867862;0
902;1765904824867867;1145,040000;1765904824867866;-3684,135000;1765904824867867;0
903;1765904824867868;-32,955000;1765904824867868;-3684,135000;1765904824867867;0
904;1765904824867869;-32,955000;1765904824867868;-3773,445000;1765904824867869;0
905;1765904824867870;632,775000;1765904824867870;-3773,445000;1765904824867869;0
906;1765904824867871;632,775000;1765904824867870;-3402,945000;1765904824867871;0
907;1765904824867873;536,640000;1765904824867873;-3660,735000;1765904824867873;0
908;1765904824867874;570,765000;1765904824867874;-3660,735000;1765904824867873;0
909;1765904824867875;570,765000;1765904824867874;-2483,130000;1765904824867875;0
910;1765904824867876;373,620000;1765904824867876;-2483,130000;1765904824867875;0
911;1765904824867877;373,620000;1765904824867876;695,370000;1765904824867877;0
912;1765904824867878;1392,300000;1765904824867878;695,370000;1765904824867877;0
913;1765904824867879;1392,300000;1765904824867878;4996,485000;1765904824867879;0
914;1765904824867880;2410,200000;1765904824867880;4996,485000;1765904824867879;0
915;1765904824867881;2033,655000;1765904824867881;6389,565000;1765904824867881;0
916;1765904824867882;2033,655000;1765904824867881;6389,565000;1765904824867882;0
917;1765904824867883;1658,280000;1765904824867883;6389,565000;1765904824867882;0
918;1765904824867884;1658,280000;1765904824867883;6389,565000;1765904824867884;0
919;1765904824867885;-5640,960000;1765904824867885;739,635000;1765904824867885;0
920;1765904824867886;-0,195000;1765904824867886;739,635000;1765904824867885;0
921;1765904824867887;-0,195000;1765904824867886;6389,565000;1765904824867887;0
922;1765904824867888;4855,695000;1765904824867888;5154,630000;1765904824867888;0
923;1765904824867889;4784,520000;1765904824867889;5154,630000;1765904824867888;0
924;1765904824867890;4784,520000;1765904824867889;-1067,820000;1765904824867890;0
925;1765904824867891;3675,750000;1765904824867891;-1067,820000;1765904824867890;0
926;1765904824867892;3675,750000;1765904824867891;-3814,980000;1765904824867892;0
927;1765904824867893;3318,705000;1765904824867893;-1575,015000;1765904824867893;0
928;1765904824867894;2993,250000;1765904824867894;-1575,015000;1765904824867893;0
929;1765904824867895;2993,250000;1765904824867894;6376,110000;1765904824867895;0
930;1765904824867896;2790,450000;1765904824867896;-1736,475000;1765904824867896;0
931;1765904824867897;2613,585000;1765904824867897;-1736,475000;1765904824867896;0
932;1765904824867898;2613,585000;1765904824867897;699,270000;1765904824867898;0
933;1765904824868790;2613,585000;1765904824867897;-3750,240000;1765904824868790;0
934;1765904824868793;-963,885000;1765904824868793;-3750,240000;1765904824868790;0
935;1765904824868794;-963,885000;1765904824868793;-3755,895000;1765904824868794;0
936;1765904824868795;-1717,560000;1765904824868795;-3755,895000;1765904824868794;0
937;1765904824868796;-1717,560000;1765904824868795;-3855,540000;1765904824868796;0
938;1765904824868797;-906,555000;1765904824868797;-3528,720000;1765904824868797;0
939;1765904824868798;-219,570000;1765904824868798;-3528,720000;1765904824868797;0
940;1765904824868799;-219,570000;1765904824868798;-3630,120000;1765904824868799;0
941;1765904824868800;387,465000;1765904824868800;-2496,780000;1765904824868800;0
942;1765904824868801;798,330000;1765904824868801;-2496,780000;1765904824868800;0
943;1765904824868802;798,330000;1765904824868801;-725,595000;1765904824868802;0
944;1765904824868803;391,170000;1765904824868803;3765,840000;1765904824868803;0
945;1765904824868804;327,795000;1765904824868804;6389,565000;1765904824868804;0
946;1765904824868805;815,100000;1765904824868805;6389,565000;1765904824868804;0
947;1765904824868806;604,890000;1765904824868806;6389,565000;1765904824868806;0
948;1765904824868807;604,890000;1765904824868806;4953,780000;1765904824868807;0
949;1765904824868808;618,345000;1765904824868808;294,060000;1765904824868808;0
950;1765904824868812;1060,410000;1765904824868812;6389,565000;1765904824868812;0
951;1765904824868813;1255,800000;1765904824868813;4613,700000;1765904824868813;0
952;1765904824868814;975,000000;1765904824868814;-919,620000;1765904824868814;0
953;1765904824868815;1372,020000;1765904824868815;-3678,675000;1765904824868815;0
954;1765904824868816;1301,820000;1765904824868816;-1682,655000;1765904824868816;0
955;1765904824868817;790,140000;1765904824868817;6026,085000;1765904824868817;0
956;1765904824868818;403,260000;1765904824868818;-1423,110000;1765904824868818;0
957;1765904824868819;312,195000;1765904824868819;180,180000;1765904824868819;0
958;1765904824974236;312,195000;1765904824868819;-3956,355000;1765904824974236;0
959;1765904824974238;-648,765000;1765904824974238;-3706,950000;1765904824974238;0
960;1765904824974239;-2163,720000;1765904824974239;-3872,895000;1765904824974239;0
961;1765904824974240;-818,025000;1765904824974240;-3356,925000;1765904824974240;0
962;1765904824974241;-2503,020000;1765904824974241;-3356,925000;1765904824974240;0
963;1765904824974242;-1398,345000;1765904824974242;-2900,430000;1765904824974242;0
964;1765904824974243;-2525,445000;1765904824974243;-1513,200000;1765904824974243;0
965;1765904824974244;-3766,230000;1765904824974244;3804,255000;1765904824974244;0
966;1765904824974245;682,305000;1765904824974245;3804,255000;1765904824974244;0
967;1765904824974246;212,160000;1765904824974246;6389,565000;1765904824974246;0
968;1765904824974247;1050,660000;1765904824974247;6389,565000;1765904824974247;0
969;1765904824974248;673,725000;1765904824974248;5106,660000;1765904824974248;0
970;1765904824974249;881,010000;1765904824974249;522,795000;1765904824974249;0
971;1765904824974250;-2958,345000;1765904824974250;6389,565000;1765904824974250;0
972;1765904824974251;-2958,345000;1765904824974250;5219,370000;1765904824974251;0
973;1765904824974252;644,865000;1765904824974252;-535,665000;1765904824974252;0
974;1765904824974253;821,730000;1765904824974253;-3695,055000;1765904824974253;0
975;1765904824974254;931,710000;1765904824974254;-1822,665000;1765904824974254;0
976;1765904824974255;1035,645000;1765904824974255;4248,465000;1765904824974255;0
977;1765904824974256;1029,600000;1765904824974256;-1922,895000;1765904824974256;0
978;1765904824974257;1029,600000;1765904824974256;-56,160000;1765904824974257;0
979;1765904824974493;1734,525000;1765904824974493;-3881,865000;1765904824974493;0
980;1765904824974494;-129,285000;1765904824974494;-3881,865000;1765904824974493;0
981;1765904824974495;1322,685000;1765904824974495;-3766,230000;1765904824974495;0
982;1765904824974497;1322,685000;1765904824974495;-3668,145000;1765904824974497;0
983;1765904824974498;1742,715000;1765904824974498;-3687,645000;1765904824974498;0
984;1765904824974499;1422,915000;1765904824974499;-2700,750000;1765904824974499;0
985;1765904824974500;1551,810000;1765904824974500;-1198,860000;1765904824974500;0
986;1765904824974501;1915,095000;1765904824974501;3799,575000;1765904824974501;0
987;1765904824974502;2023,710000;1765904824974502;6389,565000;1765904824974502;0
988;1765904824974503;1519,245000;1765904824974503;6389,565000;1765904824974503;0
989;1765904824974504;1529,580000;1765904824974504;5189,340000;1765904824974504;0
990;1765904824974505;1515,345000;1765904824974505;512,070000;1765904824974505;0
991;1765904824974506;2010,255000;1765904824974506;6389,565000;1765904824974506;0
992;1765904824974507;2106,975000;1765904824974507;4903,470000;1765904824974507;0
993;1765904824974508;2781,480000;1765904824974508;-1885,650000;1765904824974508;0
994;1765904824974509;-117,780000;1765904824974509;-2150,655000;1765904824974509;0
995;1765904824974510;-3151,395000;1765904824974510;-2941,575000;1765904824974510;0
996;1765904824974511;535,665000;1765904824974511;4065,555000;1765904824974511;0
997;1765904824974512;4223,115000;1765904824974512;4065,555000;1765904824974511;0
998;1765904824974514;4223,115000;1765904824974512;-2237,235000;1765904824974514;0
999;1765904824974515;2922,855000;1765904824974515;-859,365000;1765904824974515;0
1000;1765904824974732;2922,855000;1765904824974515;-4706,130000;1765904824974732;0
1001;1765904824974733;2811,315000;1765904824974733;-4706,130000;1765904824974732;0
1002;1765904824974734;2811,315000;1765904824974733;-4662,450000;1765904824974734;0
1003;1765904824974735;4827,810000;1765904824974735;-4580,745000;1765904824974735;0
1004;1765904824974736;5380,635000;1765904824974736;-3929,445000;1765904824974736;0
1005;1765904824974737;804,375000;1765904824974737;-4378,335000;1765904824974737;0
1006;1765904824974738;683,670000;1765904824974738;-3375,255000;1765904824974738;0
1007;1765904824974739;4165,395000;1765904824974739;-798,525000;1765904824974739;0
1008;1765904824974740;3666,000000;1765904824974740;3034,980000;1765904824974740;0
1009;1765904824974741;131,820000;1765904824974741;3034,980000;1765904824974740;0
1010;1765904824974742;1194,960000;1765904824974742;6389,565000;1765904824974742;0
1011;1765904824974743;728,130000;1765904824974743;6389,565000;1765904824974743;0
1012;1765904824974744;-1719,315000;1765904824974744;-201,630000;1765904824974744;0
1013;1765904824974745;-2906,865000;1765904824974745;6389,565000;1765904824974745;0
1014;1765904824974746;-1186,380000;1765904824974746;2310,555000;1765904824974746;0
1015;1765904824974747;-2299,440000;1765904824974747;-1228,500000;1765904824974747;0
1016;1765904824974748;-2631,135000;1765904824974748;-3686,670000;1765904824974748;0
1017;1765904824974749;-3089,385000;1765904824974749;-1643,850000;1765904824974749;0
1018;1765904824974750;-4754,295000;1765904824974750;6326,190000;1765904824974750;0
1019;1765904824974751;-3394,755000;1765904824974751;-1018,680000;1765904824974751;0
1020;1765904824976482;-3394,755000;1765904824974751;-3726,645000;1765904824976482;0
1021;1765904824976484;-2649,660000;1765904824976484;-3750,435000;1765904824976484;0
1022;1765904824976485;-5876,715000;1765904824976485;-3750,435000;1765904824976484;0
1023;1765904824976486;-5876,715000;1765904824976485;-3860,025000;1765904824976486;0
1024;1765904824976487;-369,525000;1765904824976487;-3576,105000;1765904824976487;0
1025;1765904824976488;5381,610000;1765904824976488;-3678,870000;1765904824976488;0
1026;1765904824976489;5381,220000;1765904824976489;-3015,675000;1765904824976489;0
1027;1765904824976490;1297,920000;1765904824976490;-1707,615000;1765904824976490;0
1028;1765904824976491;4146,480000;1765904824976491;3624,465000;1765904824976491;0
1029;1765904824976492;4674,735000;1765904824976492;3624,465000;1765904824976491;0
1030;1765904824976493;884,910000;1765904824976493;6389,565000;1765904824976493;0
1031;1765904824976494;5154,825000;1765904824976494;6389,565000;1765904824976494;0
1032;1765904824976495;1371,630000;1765904824976495;5365,230000;1765904824976495;0
1033;1765904824976496;1051,635000;1765904824976496;656,175000;1765904824976496;0
1034;1765904824976497;701,025000;1765904824976497;6389,565000;1765904824976497;0
1035;1765904824976498;694,005000;1765904824976498;4035,525000;1765904824976498;0
1036;1765904824976499;-558,480000;1765904824976499;-919,035000;1765904824976499;0
1037;1765904824976500;-818,415000;1765904824976500;-3806,790000;1765904824976500;0
1038;1765904824976501;-1908,855000;1765904824976501;5801,250000;1765904824976501;0
1039;1765904824976502;-3817,905000;1765904824976502;-2196,090000;1765904824976502;0
1040;1765904824976503;-1984,905000;1765904824976503;-213,915000;1765904824976503;0
1041;1765904824977902;-1984,905000;1765904824976503;-3511,560000;1765904824977902;0
1042;1765904824977904;-5266,170000;1765904824977904;-3511,560000;1765904824977902;0
1043;1765904824977905;-5266,170000;1765904824977904;-3840,915000;1765904824977905;0
1044;1765904824977906;-4034,745000;1765904824977906;-3840,915000;1765904824977905;0
1045;1765904824977907;-4034,745000;1765904824977906;-3797,625000;1765904824977907;0
1046;1765904824977908;2806,830000;1765904824977908;-3500,055000;1765904824977908;0
1047;1765904824977909;2874,495000;1765904824977909;-3547,245000;1765904824977909;0
1048;1765904824977910;417,690000;1765904824977910;-2666,235000;1765904824977910;0
1049;1765904824977911;767,130000;1765904824977911;822,705000;1765904824977911;0
1050;1765904824977912;558,090000;1765904824977912;5456,685000;1765904824977912;0
1051;1765904824977913;1401,465000;1765904824977913;6389,565000;1765904824977913;0
1052;1765904824977914;1523,145000;1765904824977914;6389,565000;1765904824977914;0
1053;1765904824977915;945,555000;1765904824977915;5571,150000;1765904824977915;0
1054;1765904824977916;136,695000;1765904824977916;576,030000;1765904824977916;0
1055;1765904824977917;621,270000;1765904824977917;6389,565000;1765904824977917;0
1056;1765904824977920;-630,825000;1765904824977920;4466,475000;1765904824977920;0
1057;1765904824977921;-3347,565000;1765904824977921;-267,345000;1765904824977921;0
1058;1765904824977922;-3347,565000;1765904824977921;-3422,640000;1765904824977922;0
1059;1765904824977923;261,885000;1765904824977923;-1597,635000;1765904824977923;0
1060;1765904824977924;2239,185000;1765904824977924;4271,475000;1765904824977924;0
1061;1765904824977925;-36,660000;1765904824977925;-3112,200000;1765904824977925;0
1062;1765904824977926;1357,980000;1765904824977926;-1644,630000;1765904824977926;0
1063;1765904824980564;1357,980000;1765904824977926;-4114,500000;1765904824980564;0
1064;1765904824980566;2235,870000;1765904824980566;-4114,500000;1765904824980564;0
1065;1765904824980567;89,895000;1765904824980567;-4264,260000;1765904824980567;0
1066;1765904824980568;89,895000;1765904824980567;-4129,515000;1765904824980568;0
1067;1765904824980569;-3932,760000;1765904824980569;-3874,455000;1765904824980569;0
1068;1765904824980570;-3747,120000;1765904824980570;-4054,050000;1765904824980570;0
1069;1765904824980571;-2927,925000;1765904824980571;-4054,050000;1765904824980570;0
1070;1765904824980572;-1947,660000;1765904824980572;-3083,730000;1765904824980572;0
1071;1765904824980573;-1820,520000;1765904824980573;-1474,005000;1765904824980573;0
1072;1765904824980574;-2687,685000;1765904824980574;3312,465000;1765904824980574;0
1073;1765904824980575;-2687,685000;1765904824980574;6389,565000;1765904824980575;0
1074;1765904824980576;-6050,070000;1765904824980576;6389,565000;1765904824980576;0
1075;1765904824980577;209,040000;1765904824980577;6018,285000;1765904824980577;0
1076;1765904824980578;-2255,955000;1765904824980578;761,085000;1765904824980578;0
1077;1765904824980579;-2524,665000;1765904824980579;6389,565000;1765904824980579;0
1078;1765904824980580;-3004,365000;1765904824980580;3681,795000;1765904824980580;0
1079;1765904824980581;-1452,750000;1765904824980581;-421,980000;1765904824980581;0
1080;1765904824980582;-1452,750000;1765904824980581;-3686,475000;1765904824980582;0
1081;1765904824980595;409,110000;1765904824980595;-1520,220000;1765904824980595;0
1082;1765904824980596;2073,630000;1765904824980596;4737,720000;1765904824980596;0
1083;1765904824980597;2903,355000;1765904824980597;-2453,100000;1765904824980597;0
1084;1765904824980598;2909,595000;1765904824980598;316,290000;1765904824980598;0
1085;1765904825030947;2909,595000;1765904824980598;-3619,785000;1765904825030947;0
1086;1765904825030950;3821,415000;1765904825030950;-3619,785000;1765904825030947;0
1087;1765904825030951;3821,415000;1765904825030950;-3792,165000;1765904825030951;0
1088;1765904825030953;2247,570000;1765904825030953;-3848,715000;1765904825030953;0
1089;1765904825030954;2720,055000;1765904825030954;-3848,715000;1765904825030953;0
1090;1765904825030955;2720,055000;1765904825030954;-3522,480000;1765904825030955;0
1091;1765904825030956;2053,740000;1765904825030956;-3522,480000;1765904825030955;0
1092;1765904825030957;2053,740000;1765904825030956;-3643,380000;1765904825030957;0
1093;1765904825030958;3308,955000;1765904825030958;-2768,805000;1765904825030958;0
1094;1765904825030959;2627,625000;1765904825030959;-2768,805000;1765904825030958;0
1095;1765904825030960;2627,625000;1765904825030959;54,210000;1765904825030960;0
1096;1765904825030961;3280,485000;1765904825030961;54,210000;1765904825030960;0
1097;1765904825030962;3280,485000;1765904825030961;5069,025000;1765904825030962;0
1098;1765904825030963;3513,315000;1765904825030963;6389,565000;1765904825030963;0
1099;1765904825030964;2007,135000;1765904825030964;6389,565000;1765904825030963;0
1100;1765904825030967;2007,135000;1765904825030964;6389,565000;1765904825030967;0
1101;1765904825030968;1719,705000;1765904825030968;6389,565000;1765904825030967;0
1102;1765904825030969;1719,705000;1765904825030968;5091,450000;1765904825030969;0
1103;1765904825030970;-2333,955000;1765904825030970;5091,450000;1765904825030969;0
1104;1765904825030971;-2333,955000;1765904825030970;259,155000;1765904825030971;0
1105;1765904825030972;-151,905000;1765904825030972;6389,565000;1765904825030972;0
1106;1765904825030973;452,400000;1765904825030973;6389,565000;1765904825030972;0
1107;1765904825030974;452,400000;1765904825030973;4188,210000;1765904825030974;0
1108;1765904825030975;528,060000;1765904825030975;-1458,600000;1765904825030975;0
1109;1765904825030976;2520,960000;1765904825030976;-1458,600000;1765904825030975;0
1110;1765904825030977;2520,960000;1765904825030976;-3225,105000;1765904825030977;0
1111;1765904825030978;2824,380000;1765904825030978;-3225,105000;1765904825030977;0
1112;1765904825030979;2824,380000;1765904825030978;-1654,770000;1765904825030979;0
1113;1765904825030980;2813,265000;1765904825030980;4679,805000;1765904825030980;0
1114;1765904825030981;4003,740000;1765904825030981;4679,805000;1765904825030980;0
1115;1765904825030982;4003,740000;1765904825030981;-3289,845000;1765904825030982;0
1116;1765904825030983;-396,435000;1765904825030983;-1071,915000;1765904825030983;0
1117;1765904825033378;-2341,170000;1765904825033378;-1071,915000;1765904825030983;0
1118;1765904825033381;-2341,170000;1765904825033378;-4672,980000;1765904825033381;0
1119;1765904825033383;-3221,985000;1765904825033383;-4455,945000;1765904825033383;0
1120;1765904825033385;2299,245000;1765904825033385;-4455,945000;1765904825033383;0
1121;1765904825033386;2299,245000;1765904825033385;-4176,900000;1765904825033386;0
1122;1765904825033387;4473,495000;1765904825033387;-4176,900000;1765904825033386;0
1123;1765904825033388;4473,495000;1765904825033387;-4338,945000;1765904825033388;0
1124;1765904825033390;4259,190000;1765904825033390;-2379,390000;1765904825033390;0
1125;1765904825033392;5092,035000;1765904825033392;-751,530000;1765904825033392;0
1126;1765904825033394;2881,905000;1765904825033394;3798,990000;1765904825033394;0
1127;1765904825033396;-5142,930000;1765904825033396;6389,565000;1765904825033396;0
1128;1765904825033398;-384,735000;1765904825033398;6389,565000;1765904825033398;0
1129;1765904825033400;5379,855000;1765904825033400;5162,625000;1765904825033400;0
1130;1765904825033402;5379,660000;1765904825033402;17,550000;1765904825033402;0
1131;1765904825033404;4765,995000;1765904825033404;6389,565000;1765904825033404;0
1132;1765904825033406;718,185000;1765904825033406;1199,250000;1765904825033406;0
1133;1765904825033408;-2644,395000;1765904825033408;-1381,770000;1765904825033408;0
1134;1765904825033410;1865,565000;1765904825033410;-4148,820000;1765904825033410;0
1135;1765904825033412;1248,975000;1765904825033412;-1343,745000;1765904825033412;0
1136;1765904825033414;1476,150000;1765904825033414;-1343,745000;1765904825033412;0
1137;1765904825033415;1476,150000;1765904825033414;4841,655000;1765904825033415;0
1138;1765904825033416;1399,710000;1765904825033416;4841,655000;1765904825033415;0
1139;1765904825033417;1399,710000;1765904825033416;-1190,475000;1765904825033417;0
1140;1765904825033419;682,305000;1765904825033419;1973,400000;1765904825033419;0
1141;1765904825036149;682,305000;1765904825033419;-3937,440000;1765904825036149;0
1142;1765904825036153;147,810000;1765904825036153;-3937,440000;1765904825036149;0
1143;1765904825036155;147,810000;1765904825036153;-3939,780000;1765904825036155;0
1144;1765904825036157;533,325000;1765904825036157;-3939,780000;1765904825036155;0
1145;1765904825036158;533,325000;1765904825036157;-3950,700000;1765904825036158;0
1146;1765904825036159;2158,650000;1765904825036159;-3950,700000;1765904825036158;0
1147;1765904825036160;2158,650000;1765904825036159;-3422,250000;1765904825036160;0
1148;1765904825036162;-990,210000;1765904825036162;-3422,250000;1765904825036160;0
1149;1765904825036163;-990,210000;1765904825036162;-3636,750000;1765904825036163;0
1150;1765904825036165;-2137,395000;1765904825036165;-3636,750000;1765904825036163;0
1151;1765904825036166;-2137,395000;1765904825036165;-2326,740000;1765904825036166;0
1152;1765904825036168;-1852,110000;1765904825036168;-362,505000;1765904825036168;0
1153;1765904825036170;1202,370000;1765904825036170;-362,505000;1765904825036168;0
1154;1765904825036171;1202,370000;1765904825036170;3722,160000;1765904825036171;0
1155;1765904825036173;-3266,055000;1765904825036173;6389,565000;1765904825036173;0
1156;1765904825036175;-1807,260000;1765904825036175;6389,565000;1765904825036173;0
1157;1765904825036176;-1807,260000;1765904825036175;6389,565000;1765904825036176;0
1158;1765904825036177;-1072,305000;1765904825036177;6389,565000;1765904825036176;0
1159;1765904825036179;-1072,305000;1765904825036177;4491,435000;1765904825036179;0
1160;1765904825036181;-1051,830000;1765904825036181;168,090000;1765904825036181;0
1161;1765904825036183;-941,265000;1765904825036183;6389,565000;1765904825036183;0
1162;1765904825036185;-400,335000;1765904825036185;6389,565000;1765904825036183;0
1163;1765904825036186;-400,335000;1765904825036185;4074,525000;1765904825036186;0
1164;1765904825036187;-718,965000;1765904825036187;4074,525000;1765904825036186;0
1165;1765904825036188;-718,965000;1765904825036187;-1219,530000;1765904825036188;0
1166;1765904825036189;-711,165000;1765904825036189;-1219,530000;1765904825036188;0
1167;1765904825036190;-711,165000;1765904825036189;-4157,595000;1765904825036190;0
1168;1765904825036192;-504,270000;1765904825036192;-1096,485000;1765904825036192;0
1169;1765904825036194;-844,545000;1765904825036194;-1096,485000;1765904825036192;0
1170;1765904825036195;-844,545000;1765904825036194;5503,095000;1765904825036195;0
1171;1765904825036196;-1490,970000;1765904825036196;5503,095000;1765904825036195;0
1172;1765904825036197;-1490,970000;1765904825036196;-2516,670000;1765904825036197;0
1173;1765904825036198;-949,455000;1765904825036198;-2516,670000;1765904825036197;0
1174;1765904825036199;-949,455000;1765904825036198;300,105000;1765904825036199;0
1175;1765904825088565;-949,455000;1765904825036198;-3691,155000;1765904825088565;0
1176;1765904825088567;-3457,545000;1765904825088567;-3691,155000;1765904825088565;0
1177;1765904825088568;-3457,545000;1765904825088567;-3903,705000;1765904825088568;0
1178;1765904825088569;-4614,480000;1765904825088569;-3919,500000;1765904825088569;0
1179;1765904825088570;-3301,935000;1765904825088570;-3599,895000;1765904825088570;0
1180;1765904825088571;-2925,000000;1765904825088571;-3639,870000;1765904825088571;0
1181;1765904825088572;-2722,395000;1765904825088572;-2828,475000;1765904825088572;0
1182;1765904825088573;-2576,730000;1765904825088573;-845,520000;1765904825088573;0
1183;1765904825088574;-3704,610000;1765904825088574;4142,775000;1765904825088574;0
1184;1765904825088575;52,650000;1765904825088575;6389,565000;1765904825088575;0
1185;1765904825088576;-1523,535000;1765904825088576;6389,565000;1765904825088576;0
1186;1765904825088577;-417,495000;1765904825088577;4204,200000;1765904825088577;0
1187;1765904825088578;529,425000;1765904825088578;104,325000;1765904825088578;0
1188;1765904825088579;528,840000;1765904825088579;6389,565000;1765904825088579;0
1189;1765904825088580;22,425000;1765904825088580;2599,740000;1765904825088580;0
1190;1765904825088581;965,250000;1765904825088581;-1504,230000;1765904825088581;0
1191;1765904825088582;424,515000;1765904825088582;-1504,230000;1765904825088581;0
1192;1765904825088583;1208,805000;1765904825088583;-3894,930000;1765904825088583;0
1193;1765904825088584;1208,805000;1765904825088583;-1341,015000;1765904825088584;0
1194;1765904825088585;977,925000;1765904825088585;5517,915000;1765904825088585;0
1195;1765904825088586;-665,925000;1765904825088586;-1569,945000;1765904825088586;0
1196;1765904825088587;-550,680000;1765904825088587;16,575000;1765904825088587;0
1197;1765904825090895;-242,970000;1765904825090895;16,575000;1765904825088587;0
1198;1765904825090897;-242,970000;1765904825090895;-3901,950000;1765904825090897;0
1199;1765904825090898;-1855,230000;1765904825090898;-3756,480000;1765904825090898;0
1200;1765904825090899;27,495000;1765904825090899;-3756,480000;1765904825090898;0
1201;1765904825090900;27,495000;1765904825090899;-3467,880000;1765904825090900;0
1202;1765904825090901;1352,520000;1765904825090901;-3669,315000;1765904825090901;0
1203;1765904825090902;1694,355000;1765904825090902;-1814,865000;1765904825090902;0
1204;1765904825090903;1342,185000;1765904825090903;1401,660000;1765904825090903;0
1205;1765904825090907;1321,125000;1765904825090907;6389,565000;1765904825090907;0
1206;1765904825090908;1766,505000;1765904825090908;6389,565000;1765904825090908;0
1207;1765904825090909;1189,110000;1765904825090909;6389,565000;1765904825090909;0
1208;1765904825090910;1352,520000;1765904825090910;6389,565000;1765904825090909;0
1209;1765904825090911;922,350000;1765904825090911;5118,360000;1765904825090911;0
1210;1765904825090912;922,350000;1765904825090911;339,300000;1765904825090912;0
1211;1765904825090913;1027,845000;1765904825090913;6389,565000;1765904825090913;0
1212;1765904825090914;920,790000;1765904825090914;3843,255000;1765904825090914;0
1213;1765904825090915;-427,245000;1765904825090915;-956,670000;1765904825090915;0
1214;1765904825090916;-583,830000;1765904825090916;-3953,040000;1765904825090916;0
1215;1765904825090917;-505,830000;1765904825090917;-3953,040000;1765904825090916;0
1216;1765904825090918;-124,215000;1765904825090918;-1135,680000;1765904825090918;0
1217;1765904825090919;-124,215000;1765904825090918;5650,515000;1765904825090919;0
1218;1765904825090920;-438,945000;1765904825090920;-1623,960000;1765904825090920;0
1219;1765904825090921;-107,640000;1765904825090921;-1623,960000;1765904825090920;0
1220;1765904825090922;-107,640000;1765904825090921;-569,790000;1765904825090922;0
1221;1765904825093410;-107,640000;1765904825090921;-3950,895000;1765904825093410;0
1222;1765904825093412;630,630000;1765904825093412;-3950,895000;1765904825093410;0
1223;1765904825093413;630,630000;1765904825093412;-4109,625000;1765904825093413;0
1224;1765904825093414;-904,020000;1765904825093414;-4109,625000;1765904825093413;0
1225;1765904825093415;-670,605000;1765904825093415;-4158,960000;1765904825093415;0
1226;1765904825093416;-670,605000;1765904825093415;-3746,340000;1765904825093416;0
1227;1765904825093417;-1082,250000;1765904825093417;-3920,865000;1765904825093417;0
1228;1765904825093418;-2738,385000;1765904825093418;-2206,620000;1765904825093418;0
1229;1765904825093419;-3857,490000;1765904825093419;-2206,620000;1765904825093418;0
1230;1765904825093420;-3141,645000;1765904825093420;1227,525000;1765904825093420;0
1231;1765904825093421;-5080,335000;1765904825093421;6389,565000;1765904825093421;0
1232;1765904825093422;-3412,695000;1765904825093422;6389,565000;1765904825093422;0
1233;1765904825093423;-2271,750000;1765904825093423;6389,565000;1765904825093422;0
1234;1765904825093424;-5603,715000;1765904825093424;6389,565000;1765904825093424;0
1235;1765904825093425;237,705000;1765904825093425;690,885000;1765904825093425;0
1236;1765904825093426;5382,975000;1765904825093426;6389,565000;1765904825093426;0
1237;1765904825093427;5382,585000;1765904825093427;1731,015000;1765904825093427;0
1238;1765904825093428;1415,700000;1765904825093428;-548,340000;1765904825093428;0
1239;1765904825093429;-1273,935000;1765904825093429;-3535,350000;1765904825093429;0
1240;1765904825093430;-1664,520000;1765904825093430;-1498,965000;1765904825093430;0
1241;1765904825093431;-1938,885000;1765904825093431;5418,855000;1765904825093431;0
1242;1765904825093432;-2625,480000;1765904825093432;-2683,590000;1765904825093432;0
1243;1765904825093433;-2625,480000;1765904825093432;-846,105000;1765904825093433;0
1244;1765904825150367;-2625,480000;1765904825093432;-4164,030000;1765904825150367;0
1245;1765904825150373;-4542,720000;1765904825150373;-4164,030000;1765904825150367;0
1246;1765904825150374;-4542,720000;1765904825150373;-4371,510000;1765904825150374;0
1247;1765904825150376;-4974,645000;1765904825150376;-4371,510000;1765904825150374;0
1248;1765904825150377;-4974,645000;1765904825150376;-4404,465000;1765904825150377;0
1249;1765904825150378;-3285,750000;1765904825150378;-4404,465000;1765904825150377;0
1250;1765904825150379;-3285,750000;1765904825150378;-3841,890000;1765904825150379;0
1251;1765904825150381;-5731,440000;1765904825150381;-3841,890000;1765904825150379;0
1252;1765904825150382;-5731,440000;1765904825150381;-4158,375000;1765904825150382;0
1253;1765904825150384;-1812,330000;1765904825150384;-4158,375000;1765904825150382;0
1254;1765904825150385;-1812,330000;1765904825150384;-2738,580000;1765904825150385;0
1255;1765904825150386;3919,890000;1765904825150386;-2738,580000;1765904825150385;0
1256;1765904825150387;3919,890000;1765904825150386;-139,425000;1765904825150387;0
1257;1765904825150389;2493,270000;1765904825150389;-139,425000;1765904825150387;0
1258;1765904825150397;2493,270000;1765904825150389;3417,180000;1765904825150397;0
1259;1765904825150399;-2644,200000;1765904825150399;3417,180000;1765904825150397;0
1260;1765904825150400;-2644,200000;1765904825150399;6389,565000;1765904825150400;0
1261;1765904825150401;-835,185000;1765904825150401;6389,565000;1765904825150400;0
1262;1765904825150402;-835,185000;1765904825150401;6389,565000;1765904825150402;0
1263;1765904825150404;2631,915000;1765904825150404;6389,565000;1765904825150402;0
1264;1765904825150405;2631,915000;1765904825150404;4295,265000;1765904825150405;0
1265;1765904825150407;-2232,750000;1765904825150407;4295,265000;1765904825150405;0
1266;1765904825150408;-2232,750000;1765904825150407;88,335000;1765904825150408;0
1267;1765904825150409;-602,745000;1765904825150409;88,335000;1765904825150408;0
1268;1765904825150410;-602,745000;1765904825150409;6389,565000;1765904825150410;0
1269;1765904825150412;1398,930000;1765904825150412;6389,565000;1765904825150410;0
1270;1765904825150413;1398,930000;1765904825150412;2779,530000;1765904825150413;0
1271;1765904825150414;-1301,040000;1765904825150414;2779,530000;1765904825150413;0
1272;1765904825150415;-1301,040000;1765904825150414;-1040,130000;1765904825150415;0
1273;1765904825150417;406,575000;1765904825150417;-1040,130000;1765904825150415;0
1274;1765904825150418;406,575000;1765904825150417;-4330,365000;1765904825150418;0
1275;1765904825150419;3264,495000;1765904825150419;-4330,365000;1765904825150418;0
1276;1765904825150420;3264,495000;1765904825150419;-848,250000;1765904825150420;0
1277;1765904825150422;2295,735000;1765904825150422;-848,250000;1765904825150420;0
1278;1765904825150423;2295,735000;1765904825150422;5945,745000;1765904825150423;0
1279;1765904825150424;3622,320000;1765904825150424;5945,745000;1765904825150423;0
1280;1765904825150425;3622,320000;1765904825150424;-2276,235000;1765904825150425;0
1281;1765904825150427;1333,605000;1765904825150427;-2276,235000;1765904825150425;0
1282;1765904825150428;1333,605000;1765904825150427;-689,130000;1765904825150428;0
1283;1765904825151951;-1232,400000;1765904825151951;-689,130000;1765904825150428;0
1284;1765904825151953;-1232,400000;1765904825151951;-3969,615000;1765904825151953;0
1285;1765904825151955;-3549,975000;1765904825151955;-3969,615000;1765904825151953;0
1286;1765904825151956;-3549,975000;1765904825151955;-3905,265000;1765904825151956;0
1287;1765904825151957;2255,955000;1765904825151957;-3905,265000;1765904825151956;0
1288;1765904825151958;2255,955000;1765904825151957;-3683,940000;1765904825151958;0
1289;1765904825151960;2023,125000;1765904825151960;-3840,135000;1765904825151960;0
1290;1765904825151962;246,090000;1765904825151962;-2247,960000;1765904825151962;0
1291;1765904825151964;1108,770000;1765904825151964;419,445000;1765904825151964;0
1292;1765904825151966;4823,910000;1765904825151966;3908,190000;1765904825151966;0
1293;1765904825151967;3281,655000;1765904825151967;3908,190000;1765904825151966;0
1294;1765904825151968;3281,655000;1765904825151967;6389,565000;1765904825151968;0
1295;1765904825151969;3265,080000;1765904825151969;6389,565000;1765904825151968;0
1296;1765904825151970;3265,080000;1765904825151969;6389,565000;1765904825151970;0
1297;1765904825151971;3252,990000;1765904825151971;6389,565000;1765904825151970;0
1298;1765904825151972;3252,990000;1765904825151971;5660,655000;1765904825151972;0
1299;1765904825151973;3182,010000;1765904825151973;499,980000;1765904825151973;0
1300;1765904825151975;3213,015000;1765904825151975;6389,565000;1765904825151975;0
1301;1765904825151976;-4235,595000;1765904825151976;6389,565000;1765904825151975;0
1302;1765904825151977;-4235,595000;1765904825151976;1615,770000;1765904825151977;0
1303;1765904825151978;27,885000;1765904825151978;1615,770000;1765904825151977;0
1304;1765904825151979;27,885000;1765904825151978;-511,485000;1765904825151979;0
1305;1765904825151980;2447,835000;1765904825151980;-511,485000;1765904825151979;0
1306;1765904825151981;2447,835000;1765904825151980;-4085,250000;1765904825151981;0
1307;1765904825151982;2788,110000;1765904825151982;-4085,250000;1765904825151981;0
1308;1765904825151983;2788,110000;1765904825151982;-1258,530000;1765904825151983;0
1309;1765904825151984;4048,005000;1765904825151984;2183,805000;1765904825151984;0
1310;1765904825151986;2768,025000;1765904825151986;1663,350000;1765904825151986;0
1311;1765904825151987;2765,295000;1765904825151987;1663,350000;1765904825151986;0
1312;1765904825151988;2765,295000;1765904825151987;-2322,450000;1765904825151988;0
1313;1765904825153718;2765,295000;1765904825151987;-3645,330000;1765904825153718;0
1314;1765904825153721;990,795000;1765904825153721;-3645,330000;1765904825153718;0
1315;1765904825153722;990,795000;1765904825153721;-3881,085000;1765904825153722;0
1316;1765904825153723;205,920000;1765904825153723;-3881,085000;1765904825153722;0
1317;1765904825153724;205,920000;1765904825153723;-3891,420000;1765904825153724;0
1318;1765904825153725;64,155000;1765904825153725;-3560,115000;1765904825153725;0
1319;1765904825153726;1283,490000;1765904825153726;-3560,115000;1765904825153725;0
1320;1765904825153727;1283,490000;1765904825153726;-3587,220000;1765904825153727;0
1321;1765904825153728;1502,475000;1765904825153728;-2189,655000;1765904825153728;0
1322;1765904825153729;3163,485000;1765904825153729;-2189,655000;1765904825153728;0
1323;1765904825153730;3163,485000;1765904825153729;-924,495000;1765904825153730;0
1324;1765904825153731;1739,205000;1765904825153731;3690,765000;1765904825153731;0
1325;1765904825153732;1378,455000;1765904825153732;3690,765000;1765904825153731;0
1326;1765904825153733;1378,455000;1765904825153732;6389,565000;1765904825153733;0
1327;1765904825153734;2563,860000;1765904825153734;6389,565000;1765904825153734;0
1328;1765904825153735;1641,510000;1765904825153735;6389,565000;1765904825153734;0
1329;1765904825153736;1641,510000;1765904825153735;4114,305000;1765904825153736;0
1330;1765904825153737;1481,805000;1765904825153737;170,235000;1765904825153737;0
1331;1765904825153738;1854,255000;1765904825153738;170,235000;1765904825153737;0
1332;1765904825153739;1854,255000;1765904825153738;6389,565000;1765904825153739;0
1333;1765904825153740;2753,205000;1765904825153740;1731,210000;1765904825153740;0
1334;1765904825153741;2790,450000;1765904825153741;-1283,685000;1765904825153741;0
1335;1765904825153742;1875,510000;1765904825153742;-1283,685000;1765904825153741;0
1336;1765904825153743;1875,510000;1765904825153742;-4111,575000;1765904825153743;0
1337;1765904825153744;2137,590000;1765904825153744;-1061,190000;1765904825153744;0
1338;1765904825153745;2030,340000;1765904825153745;-1061,190000;1765904825153744;0
1339;1765904825153746;2030,340000;1765904825153745;5773,950000;1765904825153746;0
1340;1765904825153747;1650,675000;1765904825153747;-1752,465000;1765904825153747;0
1341;1765904825153748;1528,995000;1765904825153748;0,000000;1765904825153748;0
1342;1765904825209770;1528,995000;1765904825153748;-3861,000000;1765904825209770;0
1343;1765904825209773;602,160000;1765904825209773;-3861,000000;1765904825209770;0
1344;1765904825209775;602,160000;1765904825209773;-4037,865000;1765904825209775;0
1345;1765904825209776;699,270000;1765904825209776;-4046,055000;1765904825209776;0
1346;1765904825209777;1393,470000;1765904825209777;-4046,055000;1765904825209776;0
1347;1765904825209778;1393,470000;1765904825209777;-3682,380000;1765904825209778;0
1348;1765904825209779;1283,490000;1765904825209779;-3806,400000;1765904825209779;0
1349;1765904825209780;1510,275000;1765904825209780;-3806,400000;1765904825209779;0
1350;1765904825209781;1510,275000;1765904825209780;-2457,975000;1765904825209781;0
1351;1765904825209782;1652,235000;1765904825209782;1049,880000;1765904825209782;0
1352;1765904825209783;323,505000;1765904825209783;1049,880000;1765904825209782;0
1353;1765904825209784;323,505000;1765904825209783;6083,415000;1765904825209784;0
1354;1765904825209785;1215,630000;1765904825209785;6389,565000;1765904825209785;0
1355;1765904825209786;1457,820000;1765904825209786;6389,565000;1765904825209786;0
1356;1765904825209787;1762,215000;1765904825209787;6389,565000;1765904825209786;0
1357;1765904825209788;2027,220000;1765904825209788;5262,270000;1765904825209788;0
1358;1765904825209789;2027,220000;1765904825209788;586,560000;1765904825209789;0
1359;1765904825209790;3041,415000;1765904825209790;6389,565000;1765904825209790;0
1360;1765904825209791;3621,345000;1765904825209791;2289,885000;1765904825209791;0
1361;1765904825209792;2441,595000;1765904825209792;2289,885000;1765904825209791;0
1362;1765904825209793;1982,175000;1765904825209793;-861,705000;1765904825209793;0
1363;1765904825209794;1326,780000;1765904825209794;-3984,825000;1765904825209794;0
1364;1765904825209795;1326,780000;1765904825209794;-1020,045000;1765904825209795;0
1365;1765904825209796;-597,675000;1765904825209796;5028,075000;1765904825209796;0
1366;1765904825209797;305,175000;1765904825209797;5028,075000;1765904825209796;0
1367;1765904825209798;1220,700000;1765904825209798;-3400,215000;1765904825209798;0
1368;1765904825209799;1220,700000;1765904825209798;-1271,010000;1765904825209799;0
1369;1765904825212093;1458,600000;1765904825212093;-1271,010000;1765904825209799;0
1370;1765904825212094;1458,600000;1765904825212093;-4302,285000;1765904825212094;0
1371;1765904825212095;-566,475000;1765904825212095;-4302,285000;1765904825212094;0
1372;1765904825212096;-566,475000;1765904825212095;-4202,055000;1765904825212096;0
1373;1765904825212097;534,105000;1765904825212097;-3979,170000;1765904825212097;0
1374;1765904825212098;-528,840000;1765904825212098;-3979,170000;1765904825212097;0
1375;1765904825212099;-528,840000;1765904825212098;-4092,075000;1765904825212099;0
1376;1765904825212100;-1422,135000;1765904825212100;-2289,300000;1765904825212100;0
1377;1765904825212101;-3565,575000;1765904825212101;675,285000;1765904825212101;0
1378;1765904825212102;-1494,285000;1765904825212102;675,285000;1765904825212101;0
1379;1765904825212103;-2552,160000;1765904825212103;3622,710000;1765904825212103;0
1380;1765904825212104;124,800000;1765904825212104;6389,565000;1765904825212104;0
1381;1765904825212105;100,230000;1765904825212105;6389,565000;1765904825212105;0
1382;1765904825212106;100,230000;1765904825212105;4685,265000;1765904825212106;0
1383;1765904825212107;-3964,935000;1765904825212107;283,920000;1765904825212107;0
1384;1765904825212108;364,260000;1765904825212108;6389,565000;1765904825212108;0
1385;1765904825212109;5205,330000;1765904825212109;3067,350000;1765904825212109;0
1386;1765904825212110;-2691,390000;1765904825212110;-1611,285000;1765904825212110;0
1387;1765904825212111;-511,485000;1765904825212111;-3820,440000;1765904825212111;0
1388;1765904825212112;-1487,460000;1765904825212112;-1144,650000;1765904825212112;0
1389;1765904825212115;801,060000;1765904825212115;5200,455000;1765904825212115;0
1390;1765904825212116;1884,870000;1765904825212116;-3094,650000;1765904825212116;0
1391;1765904825212117;1661,010000;1765904825212117;-1029,015000;1765904825212117;0
1392;1765904825213238;1661,010000;1765904825212117;-4452,630000;1765904825213238;0
1393;1765904825213240;1099,410000;1765904825213240;-4582,695000;1765904825213240;0
1394;1765904825213241;-615,810000;1765904825213241;-4522,440000;1765904825213241;0
1395;1765904825213242;526,305000;1765904825213242;-4522,440000;1765904825213241;0
1396;1765904825213243;1301,430000;1765904825213243;-4143,945000;1765904825213243;0
1397;1765904825213244;1301,430000;1765904825213243;-4093,635000;1765904825213244;0
1398;1765904825213245;303,420000;1765904825213245;-2842,905000;1765904825213245;0
1399;1765904825213246;590,460000;1765904825213246;202,410000;1765904825213246;0
1400;1765904825213247;2543,775000;1765904825213247;4062,045000;1765904825213247;0
1401;1765904825213248;-2613,000000;1765904825213248;6389,565000;1765904825213248;0
1402;1765904825213249;-1177,410000;1765904825213249;6389,565000;1765904825213249;0
1403;1765904825213250;3114,150000;1765904825213250;4234,035000;1765904825213250;0
1404;1765904825213251;3265,275000;1765904825213251;182,910000;1765904825213251;0
1405;1765904825213252;5378,295000;1765904825213252;6389,565000;1765904825213252;0
1406;1765904825213253;5378,100000;1765904825213253;456,300000;1765904825213253;0
1407;1765904825213254;4596,930000;1765904825213254;456,300000;1765904825213253;0
1408;1765904825213255;4458,675000;1765904825213255;-1549,080000;1765904825213255;0
1409;1765904825213256;4100,265000;1765904825213256;-954,330000;1765904825213256;0
1410;1765904825213257;3630,510000;1765904825213257;5150,730000;1765904825213257;0
1411;1765904825213258;3986,190000;1765904825213258;5150,730000;1765904825213257;0
1412;1765904825213259;2562,885000;1765904825213259;2992,665000;1765904825213259;0
1413;1765904825213260;2562,885000;1765904825213259;-4773,015000;1765904825213260;0
1414;1765904825270070;2562,885000;1765904825213259;-4116,645000;1765904825270070;0
1415;1765904825270081;-1827,930000;1765904825270081;-4116,645000;1765904825270070;0
1416;1765904825270083;-1827,930000;1765904825270081;-4291,950000;1765904825270083;0
1417;1765904825270087;-2650,440000;1765904825270087;-4291,950000;1765904825270083;0
1418;1765904825270089;-2650,440000;1765904825270087;-4245,150000;1765904825270089;0
1419;1765904825270092;1293,435000;1765904825270092;-4245,150000;1765904825270089;0
1420;1765904825270094;1293,435000;1765904825270092;-3878,745000;1765904825270094;0
1421;1765904825270097;-5545,410000;1765904825270097;-3878,745000;1765904825270094;0
1422;1765904825270099;-5545,410000;1765904825270097;-4008,810000;1765904825270099;0
1423;1765904825270103;525,720000;1765904825270103;-4008,810000;1765904825270099;0
1424;1765904825270105;525,720000;1765904825270103;-2455,440000;1765904825270105;0
1425;1765904825270108;3910,530000;1765904825270108;-2455,440000;1765904825270105;0
1426;1765904825270110;3910,530000;1765904825270108;1385,280000;1765904825270110;0
1427;1765904825270113;5376,540000;1765904825270113;1385,280000;1765904825270110;0
1428;1765904825270114;5376,540000;1765904825270113;4829,760000;1765904825270114;0
1429;1765904825270117;5376,150000;1765904825270117;4829,760000;1765904825270114;0
1430;1765904825270119;5376,150000;1765904825270117;6389,565000;1765904825270119;0
1431;1765904825270122;560,625000;1765904825270122;6389,565000;1765904825270119;0
1432;1765904825270124;560,625000;1765904825270122;6389,565000;1765904825270124;0
1433;1765904825270127;-639,015000;1765904825270127;6389,565000;1765904825270124;0
1434;1765904825270129;-639,015000;1765904825270127;5139,225000;1765904825270129;0
1435;1765904825270131;919,620000;1765904825270131;5139,225000;1765904825270129;0
1436;1765904825270133;919,620000;1765904825270131;356,070000;1765904825270133;0
1437;1765904825270136;1006,980000;1765904825270136;356,070000;1765904825270133;0
1438;1765904825270138;1006,980000;1765904825270136;6389,565000;1765904825270138;0
1439;1765904825270141;-882,570000;1765904825270141;6389,565000;1765904825270138;0
1440;1765904825270142;-882,570000;1765904825270141;1722,435000;1765904825270142;0
1441;1765904825270145;70,785000;1765904825270145;1722,435000;1765904825270142;0
1442;1765904825270147;70,785000;1765904825270145;-1230,060000;1765904825270147;0
1443;1765904825270150;583,830000;1765904825270150;-1230,060000;1765904825270147;0
1444;1765904825270151;583,830000;1765904825270150;-4221,945000;1765904825270151;0
1445;1765904825270154;1097,460000;1765904825270154;-4221,945000;1765904825270151;0
1446;1765904825270155;1097,460000;1765904825270154;-645,645000;1765904825270155;0
1447;1765904825270158;-275,340000;1765904825270158;-645,645000;1765904825270155;0
1448;1765904825270160;-275,340000;1765904825270158;4467,060000;1765904825270160;0
1449;1765904825270163;-1415,310000;1765904825270163;4467,060000;1765904825270160;0
1450;1765904825270164;-1415,310000;1765904825270163;-327,210000;1765904825270164;0
1451;1765904825270171;-1454,895000;1765904825270171;-327,210000;1765904825270164;0
1452;1765904825270172;-1454,895000;1765904825270171;-454,350000;1765904825270172;0
1453;1765904825284368;-4776,135000;1765904825284368;-454,350000;1765904825270172;0
1454;1765904825284370;-4776,135000;1765904825284368;-4498,650000;1765904825284370;0
1455;1765904825284372;-5996,835000;1765904825284372;-4498,650000;1765904825284370;0
1456;1765904825284376;-5996,835000;1765904825284372;-4448,535000;1765904825284376;0
1457;1765904825284377;313,365000;1765904825284377;-4448,535000;1765904825284376;0
1458;1765904825284378;313,365000;1765904825284377;-4144,530000;1765904825284378;0
1459;1765904825284379;2182,245000;1765904825284379;-4223,895000;1765904825284379;0
1460;1765904825284381;3103,230000;1765904825284381;-2356,770000;1765904825284381;0
1461;1765904825284382;1940,445000;1765904825284382;-2356,770000;1765904825284381;0
1462;1765904825284383;1940,445000;1765904825284382;2077,335000;1765904825284383;0
1463;1765904825284384;2527,395000;1765904825284384;6389,565000;1765904825284384;0
1464;1765904825284385;3159,000000;1765904825284385;6389,565000;1765904825284384;0
1465;1765904825284386;3159,000000;1765904825284385;6389,565000;1765904825284386;0
1466;1765904825284387;-4448,535000;1765904825284387;6389,565000;1765904825284387;0
