Indice,ECG
0,16788
1,16654
2,16690
3,17152
4,17350
5,17471
6,17785
7,18311
8,18789
9,19654
10,20510
11,21356
12,22743
13,23869
14,25242
15,26325
16,27005
17,28083
18,29207
19,30817
20,34082
21,35691
22,38953
23,40027
24,41096
25,42463
26,43080
27,44180
28,45074
29,45830
30,46530
31,47197
32,47466
33,48018
34,49142
35,49818
36,50218
37,50653
38,50885
39,51062
40,51237
41,51693
42,51384
43,51417
44,51851
45,52235
46,52125
47,51898
48,51976
49,51657
50,51683
51,51193
52,50980
53,50558
54,50497
55,49666
56,49327
57,48450
58,47991
59,46670
60,45847
61,45707
62,45063
63,44832
64,43891
65,43049
66,41637
67,40732
68,39740
69,38868
70,37567
71,36484
72,34106
73,33083
74,31851
75,31065
76,29022
77,27537
78,26428
79,25316
80,23552
81,23118
82,22127
83,21452
84,20758
85,20197
86,19734
87,19116
88,19024
89,18232
90,18156
91,17628
92,17088
93,16580
94,16507
95,16442
96,16406
97,16254
98,16358
99,16660
100,16779
101,16794
102,17258
103,17591
104,17808
105,18619
106,19091
107,19735
108,20264
109,21006
110,21675
111,22792
112,23382
113,24194
114,25175
115,26014
116,26359
117,28023
118,29076
119,30098
120,31330
121,34489
122,35224
123,36759
124,37915
125,38953
126,40925
127,41971
128,42877
129,45147
130,46059
131,47087
132,47686
133,48397
134,49217
135,50178
136,50317
137,50468
138,51123
139,51162
140,51261
141,51397
142,51722
143,51689
144,51624
145,51934
146,52302
147,52025
148,51907
149,51823
150,51593
151,51186
152,51128
153,50489
154,50078
155,49414
156,48963
157,48467
158,47976
159,47292
160,46433
161,45433
162,44677
163,43544
164,41674
165,40711
166,39735
167,38641
168,35319
169,33853
170,32420
171,31207
172,29615
173,27545
174,26531
175,26271
176,25206
177,24396
178,23658
179,22451
180,21754
181,258
182,19911
183,19307
184,18632
185,18014
186,17695
187,17511
188,17034
189,16850
190,16772
191,16423
192,16258
193,16330
194,15986
195,16463
196,16312
197,16397
198,16596
199,16720
200,17194
201,17060
202,17295
203,17703
204,17842
205,18310
206,18838
207,19536
208,20696
209,21393
210,22082
211,23218
212,23930
213,24390
214,25174
215,26483
216,27575
217,28288
218,29097
219,30219
220,31398
221,32499
222,33837
223,34915
224,37232
225,38414
226,39440
227,40845
228,42022
229,43415
230,44593
231,46544
232,46846
233,47665
234,48032
235,48831
236,49572
237,50385
238,50908
239,51313
240,50997
241,51450
242,51664
243,51924
244,51483
245,51715
246,51995
247,51742
248,51763
249,51700
250,51216
251,51193
252,51192
253,51003
254,50599
255,50377
256,49749
257,49238
258,48601
259,48209
260,47708
261,46736
262,46197
263,45386
264,44814
265,43978
266,43014
267,41623
268,40716
269,39704
270,38714
271,37540
272,34726
273,34462
274,32811
275,31836
276,30752
277,29667
278,28609
279,27416
280,26558
281,25203
282,24067
283,23095
284,22233
285,21566
286,20589
287,19406
288,18723
289,18376
290,17900
291,17553
292,17057
293,16803
294,16327
295,16177
296,16252
297,16311
298,16431
299,16697
300,16848
301,17104
302,17212
303,17383
304,17831
305,18472
306,18447
307,19136
308,19244
309,20068
310,21069
311,21573
312,22294
313,22510
314,23106
315,23925
316,24749
317,25482
318,26846
319,28733
320,29372
321,30396
322,31339
323,32240
324,34258
325,35551
326,36047
327,37199
328,38865
329,39775
330,40590
331,41582
332,42396
333,42844
334,43705
335,45035
336,45824
337,46931
338,47404
339,48226
340,48949
341,49562
342,50067
343,50167
344,51219
345,51492
346,51386
347,51333
348,51825
349,52065
350,51672
351,51937
352,51734
353,51162
354,51246
355,50834
356,51064
357,49415
358,49141
359,48371
360,47887
361,47164
362,46766
363,45083
364,43854
365,43236
366,42150
367,41313
368,39727
369,38746
370,36460
371,34727
372,33542
373,32359
374,31403
375,29870
376,28613
377,27439
378,26654
379,25752
380,23622
381,23412
382,22607
383,21905
384,21114
385,20511
386,19857
387,19402
388,18857
389,18278
390,17769
391,17438
392,17233
393,16905
394,16641
395,16584
396,16603
397,16325
398,16485
399,16086
400,16529
401,16659
402,16763
403,16935
404,17734
405,18269
406,18631
407,19196
408,20367
409,20999
410,21642
411,22756
412,23346
413,24410
414,25109
415,25871
416,26945
417,28026
418,29005
419,30118
420,33619
421,34810
422,35963
423,37036
424,38290
425,39382
426,40382
427,40930
428,41806
429,43267
430,44110
431,44750
432,45758
433,46499
434,46993
435,48210
436,48575
437,49375
438,49745
439,50111
440,50594
441,51008
442,51212
443,51305
444,51360
445,51434
446,52016
447,51665
448,52057
449,52147
450,51791
451,51712
452,51500
453,51132
454,50657
455,50308
456,50243
457,49807
458,49516
459,48525
460,47705
461,46949
462,46432
463,45241
464,44331
465,43114
466,41794
467,40809
468,39337
469,37793
470,36480
471,34812
472,33695
473,31253
474,29715
475,28616
476,27635
477,26766
478,25329
479,24594
480,24265
481,23320
482,23207
483,21830
484,21155
485,20479
486,19952
487,19336
488,18738
489,18414
490,17875
491,258
492,17600
493,17004
494,16973
495,16653
496,16794
497,16367
498,16408
499,16149
500,16210
501,16388
502,16374
503,16651
504,17061
505,17253
506,17214
507,17357
508,17856
509,18511
510,18936
511,19821
512,20148
513,20999
514,21616
515,22253
516,23047
517,23738
518,24680
519,25584
520,27495
521,28490
522,29686
523,30806
524,32030
525,33155
526,34241
527,35358
528,36948
529,38992
530,39709
531,41122
532,42244
533,43823
534,44582
535,44829
536,45811
537,46992
538,47436
539,48207
540,48906
541,49143
542,49476
543,50158
544,50843
545,51121
546,51642
547,51677
548,51557
549,51670
550,51874
551,52010
552,51955
553,51959
554,51485
555,51407
556,51096
557,50811
558,50806
559,50498
560,49594
561,48796
562,47988
563,47691
564,46109
565,45469
566,44816
567,43388
568,42644
569,41216
570,40232
571,38962
572,37822
573,36595
574,35316
575,34537
576,33021
577,31306
578,29714
579,28583
580,27194
581,25699
582,25096
583,23852
584,22926
585,21829
586,21051
587,20160
588,19404
589,18565
590,18177
591,17800
592,17505
593,17303
594,16918
595,16895
596,16395
597,16435
598,16145
599,16395
600,16378
601,16591
602,16528
603,17001
604,17004
605,17307
606,17489
607,18444
608,18836
609,19575
610,21425
611,22052
612,22719
613,23494
614,24256
615,25198
616,26069
617,28118
618,29062
619,30236
620,31661
621,33103
622,34185
623,35253
624,36718
625,37758
626,39455
627,40748
628,41924
629,42951
630,43292
631,44131
632,45232
633,46187
634,47262
635,47764
636,48434
637,48982
638,49391
639,49927
640,50355
641,50906
642,51129
643,51337
644,51749
645,51804
646,52046
647,51653
648,51609
649,51752
650,51717
651,51218
652,51097
653,50773
654,50336
655,49894
656,49345
657,48700
658,47919
659,47204
660,45936
661,45132
662,44359
663,43046
664,42175
665,41811
666,40706
667,39164
668,38050
669,35945
670,34233
671,33047
672,31799
673,31488
674,29356
675,28100
676,27646
677,26645
678,25274
679,24617
680,23373
681,22456
682,22198
683,21486
684,20434
685,19821
686,19148
687,18662
688,18135
689,17707
690,17263
691,17111
692,16744
693,16682
694,16493
695,16081
696,16079
697,16572
698,16903
699,17110
700,17320
701,17729
702,18106
703,18304
704,19023
705,19446
706,20053
707,21040
708,21604
709,22310
710,23592
711,24407
712,25576
713,26547
714,27117
715,28673
716,29481
717,31377
718,32419
719,33417
720,34318
721,35530
722,36968
723,38931
724,39940
725,40398
726,41386
727,42464
728,43082
729,44216
730,44778
731,45813
732,46340
733,47481
734,48520
735,49012
736,49189
737,49800
738,50562
739,50807
740,51194
741,51370
742,51759
743,51626
744,51722
745,52044
746,51984
747,52239
748,51865
749,51834
750,51638
751,51328
752,51086
753,51337
754,50100
755,50087
756,49732
757,48821
758,48450
759,47766
760,46795
761,45861
762,44758
763,43902
764,43561
765,42687
766,41493
767,40227
768,38890
769,37662
770,36367
771,35349
772,34076
773,33023
774,31399
775,30109
776,28930
777,28001
778,27356
779,26017
780,24733
781,24051
782,23731
783,22923
784,22276
785,21467
786,20767
787,20280
788,19351
789,18957
790,18164
791,17743
792,17121
793,16954
794,16906
795,16523
796,16796
797,16236
798,16329
799,16430
800,16291
801,16623
802,16795
803,16850
804,17134
805,17647
806,17877
807,18161
808,18491
809,19283
810,19942
811,20431
812,21351
813,21831
814,22584
815,23451
816,24318
817,25211
818,25858
819,26675
820,27649
821,28740
822,30342
823,31142
824,32034
825,33186
826,34116
827,35275
828,36795
829,37915
830,39324
831,40486
832,41215
833,42009
834,42772
835,43374
836,44199
837,45366
838,46214
839,47481
840,48027
841,48413
842,48990
843,49513
844,50003
845,50727
846,51544
847,51211
848,51746
849,51770
850,51783
851,51830
852,52125
853,51944
854,51927
855,52091
856,51551
857,51543
858,51525
859,51132
860,50724
861,50631
862,49522
863,49131
864,48828
865,48256
866,47616
867,47125
868,46776
869,46015
870,45204
871,43491
872,42552
873,41737
874,40704
875,39176
876,38403
877,37021
878,35827
879,34805
880,32877
881,31212
882,30099
883,29184
884,28036
885,27082
886,26085
887,25256
888,24478
889,23609
890,22801
891,22130
892,21513
893,20890
894,20709
895,20252
896,19582
897,18965
898,18735
899,18165
900,17861
901,17434
902,17219
903,17003
904,17045
905,16917
906,16525
907,16709
908,16599
909,16050
910,16203
911,16321
912,16480
913,17064
914,17351
915,17445
916,17630
917,17749
918,18439
919,18767
920,19398
921,19844
922,20719
923,21238
924,21845
925,22839
926,23355
927,24366
928,25030
929,25701
930,26320
931,26999
932,27857
933,29638
934,31465
935,32265
936,33707
937,35331
938,36914
939,38162
940,38906
941,40572
942,42468
943,43664
944,44600
945,45230
946,45736
947,45934
948,47850
949,48322
950,48863
951,49426
952,49870
953,50380
954,50704
955,51350
956,51604
957,51970
958,51658
959,52075
960,52085
961,51686
962,51720
963,51340
964,51402
965,51317
966,50972
967,50126
968,50123
969,49224
970,49153
971,48234
972,47404
973,46756
974,46368
975,45894
976,44777
977,43454
978,42772
979,41789
980,41392
981,40307
982,38776
983,38042
984,37198
985,35374
986,34352
987,33059
988,32108
989,30877
990,29670
991,28768
992,27499
993,27311
994,26243
995,24789
996,24137
997,23366
998,22375
999,21880
1000,21063
1001,20183
1002,19617
1003,18550
1004,18236
1005,17687
1006,17446
1007,16993
1008,16867
1009,16853
1010,16772
1011,16467
1012,16171
1013,16488
1014,16268
1015,16456
1016,16554
1017,16721
1018,17063
1019,17034
1020,17495
1021,17917
1022,18100
1023,18518
1024,19396
1025,20264
1026,21040
1027,21284
1028,23189
1029,24027
1030,24910
1031,26067
1032,27516
1033,28588
1034,30616
1035,32051
1036,33172
1037,34982
1038,35880
1039,36555
1040,37622
1041,38929
1042,40612
1043,42036
1044,42920
1045,44286
1046,45055
1047,45719
1048,46576
1049,46955
1050,48134
1051,48628
1052,49025
1053,49236
1054,50100
1055,50707
1056,51030
1057,51231
1058,51506
1059,51781
1060,51997
1061,51932
1062,51941
1063,51756
1064,51939
1065,51315
1066,51554
1067,51250
1068,50701
1069,50327
1070,50038
1071,49638
1072,48712
1073,48307
1074,47687
1075,46924
1076,46290
1077,45438
1078,43947
1079,43001
1080,41663
1081,40675
1082,39634
1083,38139
1084,36998
1085,36779
1086,35264
1087,33573
1088,31879
1089,30866
1090,29547
1091,28540
1092,26495
1093,25683
1094,23971
1095,23227
1096,22484
1097,21727
1098,20831
1099,20116
1100,19664
1101,19297
1102,17982
1103,17727
1104,17419
1105,17150
1106,16806
1107,16830
1108,16450
1109,16416
1110,16158
1111,16271
1112,16505
1113,16371
1114,16565
1115,16672
1116,16897
1117,17975
1118,18528
1119,18909
1120,19719
1121,20911
1122,21684
1123,22776
1124,23984
1125,24797
1126,25649
1127,26292
1128,27958
1129,28945
1130,31480
1131,32418
1132,33796
1133,35545
1134,36661
1135,38424
1136,39692
1137,41486
1138,42205
1139,43375
1140,43701
1141,44538
1142,46160
1143,46877
1144,47593
1145,48317
1146,48800
1147,49815
1148,50632
1149,51064
1150,51190
1151,51302
1152,51527
1153,51800
1154,51495
1155,52037
1156,51879
1157,52328
1158,51936
1159,51457
1160,51617
1161,51209
1162,51123
1163,51147
1164,50911
1165,50071
1166,49788
1167,48963
1168,48738
1169,47762
1170,47422
1171,46519
1172,45897
1173,45340
1174,44764
1175,43008
1176,42148
1177,41216
1178,40315
1179,39244
1180,38726
1181,37658
1182,35811
1183,34736
1184,32910
1185,32076
1186,30800
1187,29594
1188,28558
1189,27527
1190,26289
1191,25235
1192,24859
1193,23603
1194,23044
1195,22065
1196,21150
1197,20570
1198,20130
1199,19633
1200,18840
1201,18082
1202,17457
1203,17207
1204,16477
1205,16804
1206,16541
1207,16290
1208,16129
1209,16487
1210,16609
1211,16653
1212,17002
1213,17291
1214,17630
1215,17969
1216,560
1217,19258
1218,20017
1219,20971
1220,21691
1221,22856
1222,23358
1223,24342
1224,25345
1225,25959
1226,26554
1227,27534
1228,28628
1229,30084
1230,32022
1231,33065
1232,34427
1233,34793
1234,36152
1235,37950
1236,38920
1237,40345
1238,42127
1239,42845
1240,44216
1241,45056
1242,46141
1243,46739
1244,47370
1245,48396
1246,49077
1247,49858
1248,50489
1249,50683
1250,50909
1251,51076
1252,51404
1253,51501
1254,51712
1255,51910
1256,52077
1257,51725
1258,51912
1259,51770
1260,51757
1261,51824
1262,51507
1263,51117
1264,50739
1265,50637
1266,50189
1267,49638
1268,49472
1269,48896
1270,47851
1271,47273
1272,46344
1273,46020
1274,45497
1275,43780
1276,43001
1277,42072
1278,40638
1279,39921
1280,38112
1281,36912
1282,35350
1283,33933
1284,33878
1285,32934
1286,31008
1287,30038
1288,29017
1289,27984
1290,26789
1291,26032
1292,25288
1293,24377
1294,23517
1295,22418
1296,21429
1297,20740
1298,19776
1299,19252
1300,18565
1301,17340
1302,17000
1303,16758
1304,16501
1305,16378
1306,16262
1307,16588
1308,16172
1309,16473
1310,16878
1311,16906
1312,17385
1313,17761
1314,17904
1315,18636
1316,18935
1317,19747
1318,20435
1319,21470
1320,23693
1321,24480
1322,25215
1323,25550
1324,27115
1325,28522
1326,28988
1327,30872
1328,31866
1329,33313
1330,34422
1331,35620
1332,36514
1333,38124
1334,39555
1335,40070
1336,41697
1337,42513
1338,43271
1339,44722
1340,45664
1341,45783
1342,46525
1343,47325
1344,48696
1345,48870
1346,49292
1347,49413
1348,50113
1349,50396
1350,51411
1351,51433
1352,51459
1353,51491
1354,51530
1355,52281
1356,51869
1357,51762
1358,51713
1359,51924
1360,51557
1361,51698
1362,51567
1363,51090
1364,50712
1365,50603
1366,50325
1367,50080
1368,49560
1369,48842
1370,48248
1371,47509
1372,47201
1373,46661
1374,46066
1375,44633
1376,43800
1377,43028
1378,42751
1379,41050
1380,40286
1381,39208
1382,38047
1383,36971
1384,35864
1385,34559
1386,32891
1387,31823
1388,29968
1389,28506
1390,27373
1391,26331
1392,25103
1393,24514
1394,23699
1395,22851
1396,21785
1397,20693
1398,20137
1399,19423
1400,19147
1401,18351
1402,18234
1403,17790
1404,17699
1405,17145
1406,16778
1407,16753
1408,16317
1409,16323
1410,16088
1411,16048
1412,16194
1413,16604
1414,16728
1415,16920
1416,16928
1417,17217
1418,17861
1419,17820
1420,18716
1421,19147
1422,19798
1423,20351
1424,20964
1425,21610
1426,22765
1427,23591
1428,24223
1429,25294
1430,26111
1431,27720
1432,28479
1433,29551
1434,30253
1435,31222
1436,32383
1437,33651
1438,34980
1439,36146
1440,37287
1441,39588
1442,40626
1443,41570
1444,41854
1445,43451
1446,44238
1447,45039
1448,47308
1449,48120
1450,48857
1451,49261
1452,49834
1453,50401
1454,51126
1455,50690
1456,51262
1457,51302
1458,51820
1459,51950
1460,51790
1461,52018
1462,52161
1463,51758
1464,51542
1465,51525
1466,51401
1467,51011
1468,51137
1469,51029
1470,50718
1471,49978
1472,49397
1473,49124
1474,48501
1475,47924
1476,47207
1477,46505
1478,45419
1479,44177
1480,42932
1481,42022
1482,41057
1483,39551
1484,38048
1485,36797
1486,36033
1487,34606
1488,32805
1489,31608
1490,30481
1491,29676
1492,28575
1493,27511
1494,26474
1495,25504
1496,24185
1497,23196
1498,22445
1499,21681
1500,20658
1501,20258
1502,19666
1503,18533
1504,17894
1505,17468
1506,17247
1507,17002
1508,16537
1509,16794
1510,16253
1511,16224
1512,16293
1513,16382
1514,16583
1515,16799
1516,16650
1517,17174
1518,17351
1519,17889
1520,18220
1521,18940
1522,19708
1523,20325
1524,20886
1525,21896
1526,22566
1527,23070
1528,24536
1529,25045
1530,26432
1531,27562
1532,28190
1533,29176
1534,30950
1535,31848
1536,33854
1537,34662
1538,36099
1539,37346
1540,38432
1541,39599
1542,41074
1543,42068
1544,43852
1545,44661
1546,45824
1547,46692
1548,47456
1549,48197
1550,49015
1551,49709
1552,50166
1553,50438
1554,50954
1555,50917
1556,51420
1557,51490
1558,51599
1559,51574
1560,51880
1561,51916
1562,51824
1563,51952
1564,51648
1565,51607
1566,51249
1567,51092
1568,50824
1569,50140
1570,49628
1571,49904
1572,49170
1573,48428
1574,47581
1575,46893
1576,45683
1577,45166
1578,43967
1579,42914
1580,41575
1581,40612
1582,40129
1583,39033
1584,37190
1585,36418
1586,35693
1587,34621
1588,32131
1589,31071
1590,29978
1591,28874
1592,27352
1593,26531
1594,25514
1595,24768
1596,23863
1597,23186
1598,21950
1599,21048
1600,20016
1601,19651
1602,18939
1603,18231
1604,17499
1605,17505
1606,17171
1607,16982
1608,16793
1609,16704
1610,16462
1611,16350
1612,16372
1613,16295
1614,16604
1615,17140
1616,17107
1617,17617
1618,17972
1619,18632
1620,19199
1621,21152
1622,21797
1623,22846
1624,23606
1625,25391
1626,26318
1627,27804
1628,28675
1629,29837
1630,31334
1631,32624
1632,33000
1633,34538
1634,36124
1635,38050
1636,39083
1637,40415
1638,43010
1639,43712
1640,44956
1641,46329
1642,46854
1643,47717
1644,48468
1645,48813
1646,49174
1647,49963
1648,49969
1649,50543
1650,50941
1651,51294
1652,51305
1653,51450
1654,51536
1655,51595
1656,52092
1657,52047
1658,51780
1659,51950
1660,51645
1661,51296
1662,51533
1663,51110
1664,51149
1665,50751
1666,50456
1667,49627
1668,49257
1669,48748
1670,48137
1671,47357
1672,47348
1673,46840
1674,46286
1675,45372
1676,44174
1677,43449
1678,42470
1679,42222
1680,41068
1681,40259
1682,38972
1683,37913
1684,36803
1685,33372
1686,32492
1687,31133
1688,29783
1689,28574
1690,27429
1691,26456
1692,25623
1693,24686
1694,24071
1695,23328
1696,22342
1697,21759
1698,20633
1699,20057
1700,19225
1701,18250
1702,18176
1703,17722
1704,17294
1705,17106
1706,16958
1707,16697
1708,16670
1709,16488
1710,15841
1711,16369
1712,16306
1713,16418
1714,16669
1715,16829
1716,17081
1717,17201
1718,17795
1719,17962
1720,18414
1721,18984
1722,19568
1723,19799
1724,20852
1725,21376
1726,22543
1727,23102
1728,23666
1729,24543
1730,25225
1731,27117
1732,28276
1733,28940
1734,30915
1735,31942
1736,33601
1737,34483
1738,35591
1739,36846
1740,37688
1741,38920
1742,40207
1743,42594
1744,43441
1745,44405
1746,45129
1747,45982
1748,46398
1749,47154
1750,48209
1751,49068
1752,49603
1753,49706
1754,50046
1755,50521
1756,50884
1757,51011
1758,51148
1759,51507
1760,51247
1761,51930
1762,51946
1763,51673
1764,52131
1765,51871
1766,51563
1767,51454
1768,51257
1769,51394
1770,50718
1771,50673
1772,50431
1773,49733
1774,48482
1775,48002
1776,47516
1777,46711
1778,46306
1779,45702
1780,45029
1781,44285
1782,43318
1783,42458
1784,39970
1785,39007
1786,36859
1787,35712
1788,34530
1789,33571
1790,30843
1791,29793
1792,28751
1793,27616
1794,26489
1795,25057
1796,23952
1797,22723
1798,21596
1799,20946
1800,20384
1801,19225
1802,18793
1803,18116
1804,17671
1805,17314
1806,16910
1807,16768
1808,16639
1809,16729
1810,16069
1811,16263
1812,16277
1813,16622
1814,16893
1815,16753
1816,17511
1817,17795
1818,18161
1819,18774
1820,19232
1821,19345
1822,20291
1823,20835
1824,21310
1825,22011
1826,23276
1827,24058
1828,24954
1829,25803
1830,27135
1831,28331
1832,30327
1833,33365
1834,34533
1835,35655
1836,36392
1837,37483
1838,38944
1839,40141
1840,42167
1841,42943
1842,44039
1843,45137
1844,45665
1845,46600
1846,47357
1847,48004
1848,48624
1849,49416
1850,49994
1851,49997
1852,50808
1853,50662
1854,50866
1855,51363
1856,51463
1857,51534
1858,51823
1859,51735
1860,51894
1861,52284
1862,52159
1863,51979
1864,51867
1865,51596
1866,51630
1867,51588
1868,51034
1869,51047
1870,50750
1871,49937
1872,49415
1873,48784
1874,48378
1875,47974
1876,46832
1877,46004
1878,45479
1879,44834
1880,44171
1881,43233
1882,42390
1883,40946
1884,37836
1885,36698
1886,35551
1887,33301
1888,32106
1889,30915
1890,28715
1891,27767
1892,26781
1893,24970
1894,23445
1895,22630
1896,21573
1897,20983
1898,20395
1899,19699
1900,19188
1901,18701
1902,17968
1903,17578
1904,17161
1905,17131
1906,16738
1907,16611
1908,16494
1909,16019
1910,15896
1911,16292
1912,16642
1913,16607
1914,16918
1915,16916
1916,17366
1917,17588
1918,17859
1919,18351
1920,560
1921,20476
1922,21096
1923,21929
1924,22597
1925,23369
1926,24094
1927,25449
1928,26896
1929,27673
1930,29372
1931,31066
1932,31999
1933,33391
1934,34037
1935,35230
1936,37023
1937,37870
1938,39547
1939,41327
1940,42260
1941,43446
1942,44458
1943,45661
1944,46321
1945,46864
1946,47568
1947,48457
1948,49008
1949,49529
1950,50110
1951,50745
1952,50584
1953,51056
1954,51448
1955,51477
1956,51657
1957,51772
1958,51726
1959,51774
1960,51720
1961,51747
1962,51849
1963,51604
1964,51507
1965,51315
1966,51266
1967,50792
1968,50385
1969,49865
1970,49814
1971,48952
1972,48652
1973,47732
1974,46971
1975,46698
1976,45297
1977,44533
1978,43618
1979,42848
1980,41504
1981,40664
1982,39923
1983,38842
1984,37790
1985,36207
1986,35345
1987,33729
1988,30985
1989,29930
1990,28831
1991,26782
1992,26087
1993,25066
1994,24176
1995,22939
1996,22096
1997,21267
1998,20012
1999,19406
2000,18551
2001,17999
2002,17736
2003,17237
2004,17162
2005,17159
2006,17005
2007,16861
2008,16535
2009,16293
2010,15841
2011,16291
2012,16074
2013,16303
2014,16732
2015,16865
2016,17081
2017,17172
2018,17635
2019,17852
2020,18615
2021,19152
2022,20307
2023,20694
2024,21682
2025,22537
2026,23477
2027,24117
2028,24884
2029,25845
2030,27277
2031,28185
2032,29122
2033,29948
2034,31059
2035,31286
2036,32803
2037,34592
2038,35839
2039,37604
2040,38393
2041,39783
2042,40879
2043,41772
2044,42601
2045,44007
2046,44917
2047,45306
2048,46251
2049,46860
2050,47606
2051,48410
2052,49279
2053,49341
2054,50018
2055,50706
2056,50810
2057,51177
2058,51619
2059,51319
2060,51580
2061,51573
2062,51704
2063,52121
2064,52237
2065,51927
2066,51872
2067,51586
2068,51469
2069,51436
2070,50760
2071,50736
2072,50081
2073,49947
2074,49399
2075,48897
2076,47833
2077,47399
2078,46381
2079,45695
2080,44361
2081,43880
2082,42886
2083,42057
2084,40902
2085,40019
2086,38675
2087,36969
2088,34767
2089,34185
2090,32944
2091,30903
2092,29509
2093,28319
2094,25882
2095,25032
2096,24135
2097,23419
2098,22674
2099,21525
2100,20996
2101,20016
2102,19231
2103,18702
2104,18365
2105,17998
2106,17512
2107,17209
2108,17191
2109,16685
2110,16765
2111,16308
2112,16283
2113,16095
2114,16158
2115,16310
2116,16521
2117,16870
2118,16820
2119,17164
2120,17557
2121,17515
2122,18293
2123,18828
2124,18963
2125,19672
2126,21475
2127,22216
2128,22972
2129,23746
2130,24473
2131,25436
2132,26360
2133,26626
2134,28308
2135,29208
2136,30496
2137,32330
2138,33454
2139,34949
2140,36335
2141,38144
2142,39496
2143,40742
2144,42207
2145,43157
2146,43469
2147,44453
2148,45962
2149,46660
2150,47468
2151,48174
2152,48567
2153,49104
2154,49428
2155,50175
2156,50594
2157,51075
2158,51374
2159,51036
2160,51416
2161,51468
2162,52159
2163,52043
2164,52181
2165,52385
2166,51785
2167,51792
2168,51747
2169,51123
2170,51352
2171,51073
2172,50518
2173,50080
2174,49557
2175,49109
2176,48569
2177,47686
2178,47038
2179,46039
2180,43690
2181,42782
2182,41902
2183,40711
2184,39499
2185,38408
2186,37259
2187,36023
2188,34427
2189,33518
2190,32599
2191,31485
2192,30364
2193,28784
2194,27941
2195,25351
2196,24517
2197,23859
2198,23108
2199,22277
2200,20898
2201,20396
2202,19723
2203,18909
2204,18255
2205,17835
2206,17408
2207,17123
2208,17027
2209,16840
2210,16834
2211,16279
2212,16417
2213,16250
2214,16180
2215,16385
2216,16499
2217,16824
2218,16499
2219,16716
2220,17240
2221,17424
2222,18180
2223,18149
2224,18919
2225,19258
2226,19845
2227,20873
2228,21582
2229,23057
2230,23514
2231,24523
2232,25999
2233,26845
2234,27151
2235,27863
2236,28896
2237,30474
2238,31741
2239,32858
2240,34098
2241,35380
2242,36563
2243,37772
2244,38746
2245,40919
2246,41588
2247,42370
2248,43199
2249,44108
2250,44896
2251,45831
2252,46795
2253,46945
2254,47975
2255,48399
2256,49028
2257,49872
2258,50484
2259,50634
2260,50597
2261,51150
2262,51648
2263,51490
2264,52257
2265,52051
2266,51944
2267,51999
2268,51521
2269,51399
2270,51276
2271,51238
2272,50874
2273,50524
2274,49910
2275,49908
2276,49101
2277,48433
2278,47855
2279,46990
2280,46135
2281,45719
2282,44615
2283,43621
2284,42210
2285,41675
2286,40462
2287,39373
2288,38351
2289,37391
2290,36875
2291,35607
2292,35320
2293,33812
2294,32088
2295,31197
2296,29950
2297,28337
2298,27079
2299,25933
2300,24691
2301,23316
2302,22759
2303,21673
2304,20955
2305,20052
2306,19672
2307,19282
2308,18540
2309,17811
2310,17828
2311,17320
2312,16992
2313,17156
2314,16974
2315,16559
2316,16239
2317,16113
2318,16115
2319,16620
2320,16635
2321,16701
2322,16806
2323,17085
2324,17282
2325,17616
2326,18004
2327,18254
2328,18740
2329,19569
2330,20212
2331,20526
2332,21291
2333,22243
2334,23366
2335,24002
2336,24934
2337,25311
2338,26231
2339,27557
2340,28976
2341,30289
2342,32283
2343,33085
2344,34667
2345,35589
2346,36954
2347,38161
2348,39180
2349,39530
2350,40862
2351,42745
2352,43357
2353,44470
2354,45275
2355,45540
2356,46321
2357,47296
2358,48228
2359,49131
2360,49495
2361,50157
2362,50885
2363,50890
2364,51261
2365,51484
2366,51710
2367,51596
2368,51871
2369,52013
2370,51827
2371,52134
2372,51573
2373,51554
2374,51516
2375,51234
2376,50852
2377,50756
2378,50250
2379,50540
2380,49820
2381,49043
2382,48890
2383,47415
2384,46170
2385,45316
2386,44480
2387,43704
2388,42922
2389,42053
2390,40458
2391,39838
2392,38452
2393,37289
2394,36400
2395,35088
2396,33899
2397,32621
2398,31743
2399,30060
2400,29002
2401,27912
2402,26537
2403,25599
2404,25262
2405,24187
2406,23206
2407,22031
2408,21454
2409,20595
2410,20475
2411,19699
2412,19085
2413,18320
2414,17823
2415,17394
2416,17486
2417,16986
2418,16783
2419,16670
2420,16446
2421,16501
2422,16235
2423,16568
2424,16343
2425,16993
2426,17021
2427,17040
2428,17252
2429,17496
2430,17839
2431,18693
2432,19230
2433,19878
2434,20747
2435,21433
2436,22362
2437,23753
2438,24925
2439,25592
2440,26696
2441,28355
2442,29852
2443,30978
2444,32512
2445,34667
2446,35685
2447,37469
2448,39041
2449,39690
2450,40748
2451,41674
2452,42565
2453,43923
2454,44601
2455,45719
2456,46798
2457,47672
2458,48461
2459,49031
2460,49701
2461,50250
2462,50634
2463,50895
2464,51264
2465,51564
2466,51538
2467,51585
2468,52285
2469,51876
2470,51735
2471,51795
2472,51734
2473,51778
2474,51349
2475,51298
2476,50733
2477,50557
2478,50349
2479,50220
2480,49636
2481,48414
2482,47941
2483,47446
2484,46431
2485,45227
2486,44784
2487,43907
2488,43398
2489,42443
2490,41752
2491,40085
2492,38512
2493,37598
2494,35672
2495,34705
2496,34203
2497,32941
2498,31356
2499,30038
2500,28422
2501,27579
2502,26663
2503,25809
2504,24733
2505,23979
2506,23310
2507,22445
2508,21839
2509,21419
2510,20332
2511,19870
2512,19187
2513,18637
2514,18284
2515,17849
2516,17497
2517,17313
2518,17077
2519,17087
2520,16693
2521,16439
2522,16336
2523,16135
2524,16135
2525,16571
2526,16437
2527,16613
2528,16924
2529,17138
2530,17117
2531,17487
2532,17933
2533,18527
2534,18887
2535,19482
2536,20099
2537,21565
2538,22594
2539,24466
2540,25188
2541,26309
2542,29254
2543,30365
2544,31356
2545,33206
2546,34371
2547,35605
2548,36757
2549,38123
2550,39648
2551,40575
2552,41968
2553,42876
2554,43548
2555,44293
2556,45205
2557,45773
2558,46748
2559,48198
2560,48555
2561,49270
2562,49267
2563,49787
2564,50670
2565,50970
2566,50938
2567,50880
2568,51677
2569,51885
2570,51927
2571,51913
2572,51617
2573,51924
2574,51907
2575,51836
2576,51486
2577,51193
2578,50985
2579,51034
2580,50823
2581,50093
2582,49584
2583,48838
2584,48124
2585,47807
2586,47114
2587,46519
2588,45806
2589,45142
2590,44186
2591,43570
2592,42383
2593,41129
2594,40105
2595,39061
2596,37876
2597,36903
2598,36485
2599,35242
2600,33310
2601,32261
2602,30518
2603,29738
2604,28918
2605,28096
2606,27116
2607,25977
2608,25068
2609,24520
2610,23479
2611,23187
2612,22018
2613,21016
2614,20515
2615,19827
2616,19324
2617,19160
2618,18468
2619,18217
2620,17525
2621,17149
2622,17232
2623,16899
2624,16659
2625,16416
2626,16421
2627,16157
2628,16446
2629,16533
2630,16838
2631,16717
2632,17159
2633,17421
2634,17760
2635,18418
2636,19083
2637,19606
2638,20112
2639,20912
2640,21478
2641,22330
2642,23266
2643,24615
2644,25838
2645,26456
2646,28783
2647,29882
2648,30969
2649,32826
2650,33865
2651,35915
2652,36871
2653,37298
2654,38527
2655,40217
2656,41298
2657,42658
2658,43447
2659,44838
2660,45686
2661,46270
2662,47058
2663,47726
2664,48272
2665,48391
2666,49092
2667,50310
2668,50749
2669,50890
2670,50988
2671,51189
2672,51531
2673,51641
2674,52076
2675,51986
2676,51956
2677,51902
2678,51576
2679,51804
2680,51588
2681,51504
2682,51336
2683,51219
2684,51015
2685,50382
2686,50354
2687,49710
2688,48672
2689,48553
2690,48023
2691,47320
2692,46833
2693,45635
2694,44510
2695,43702
2696,42519
2697,41375
2698,40112
2699,39095
2700,37223
2701,36475
2702,35071
2703,33794
2704,32697
2705,31825
2706,30453
2707,29316
2708,28310
2709,27365
2710,25991
2711,25262
2712,24030
2713,23427
2714,22686
2715,20955
2716,20337
2717,19174
2718,18755
2719,18272
2720,17654
2721,17356
2722,17179
2723,16903
2724,16622
2725,16494
2726,16281
2727,16366
2728,16295
2729,16007
2730,16368
2731,16281
2732,16780
2733,16889
2734,16928
2735,17716
2736,18253
2737,18677
2738,19533
2739,20493
2740,20965
2741,21516
2742,22170
2743,22973
2744,24147
2745,24945
2746,25862
2747,26747
2748,28383
2749,29456
2750,30482
2751,31571
2752,33234
2753,34669
2754,35980
2755,39785
2756,40784
2757,41708
2758,42914
2759,44073
2760,44884
2761,45660
2762,46586
2763,47210
2764,48039
2765,48203
2766,48732
2767,49251
2768,50282
2769,50521
2770,50611
2771,51173
2772,51336
2773,51741
2774,51436
2775,51634
2776,51790
2777,51626
2778,51930
2779,51811
2780,51734
2781,51358
2782,51398
2783,50999
2784,50785
2785,50567
2786,49655
2787,49409
2788,48985
2789,47977
2790,47741
2791,46880
2792,46993
2793,46214
2794,46122
2795,45306
2796,43995
2797,42816
2798,41921
2799,40913
2800,40431
2801,39543
2802,38099
2803,36639
2804,34945
2805,34011
2806,32680
2807,31498
2808,30398
2809,29265
2810,27774
2811,26766
2812,26535
2813,25051
2814,24109
2815,23396
2816,22264
2817,21497
2818,20926
2819,20296
2820,19696
2821,18858
2822,18499
2823,17978
2824,17864
2825,17352
2826,17070
2827,16772
2828,16660
2829,16606
2830,16247
2831,16191
2832,16486
2833,16381
2834,16711
2835,16958
2836,17055
2837,17481
2838,17896
2839,18445
2840,18769
2841,19323
2842,19880
2843,20584
2844,21483
2845,22090
2846,22927
2847,23698
2848,24537
2849,25433
2850,26127
2851,27308
2852,28146
2853,29297
2854,31187
2855,32736
2856,34045
2857,35602
2858,36895
2859,38491
2860,40795
2861,41715
2862,42730
2863,43608
2864,44255
2865,44730
2866,45542
2867,46331
2868,46959
2869,47724
2870,48604
2871,48923
2872,49702
2873,49988
2874,50903
2875,50898
2876,51135
2877,51467
2878,51447
2879,51592
2880,51914
2881,52120
2882,52012
2883,52015
2884,51774
2885,51972
2886,51430
2887,51218
2888,50951
2889,50694
2890,50957
2891,49932
2892,49280
2893,48929
2894,48390
2895,47228
2896,46735
2897,46250
2898,45352
2899,44479
2900,43892
2901,43170
2902,42316
2903,41413
2904,38341
2905,37123
2906,36036
2907,35898
2908,35198
2909,33782
2910,32738
2911,31628
2912,29277
2913,28737
2914,27215
2915,26101
2916,25087
2917,23730
2918,23122
2919,21960
2920,21001
2921,20397
2922,19454
2923,19027
2924,18729
2925,18312
2926,17671
2927,17343
2928,17196
2929,16948
2930,16817
2931,16727
2932,16522
2933,16286
2934,16148
2935,16547
2936,16322
2937,16390
2938,16901
2939,16840
2940,17220
2941,17435
2942,17647
2943,18234
2944,19565
2945,20182
2946,20793
2947,21248
2948,21829
2949,22802
2950,23704
2951,24551
2952,25859
2953,26799
2954,27727
2955,28693
2956,29938
2957,31403
2958,32797
2959,33920
2960,35871
2961,36956
2962,37982
2963,38986
2964,41179
2965,41949
2966,43046
2967,43748
2968,45210
2969,45883
2970,46715
2971,47998
2972,48371
2973,48853
2974,49789
2975,50530
2976,50743
2977,51411
2978,51760
2979,51688
2980,52044
2981,51813
2982,52027
2983,51738
2984,51541
2985,51771
2986,51272
2987,51510
2988,51225
2989,50527
2990,50247
2991,49923
2992,49242
2993,48856
2994,47852
2995,46054
2996,45218
2997,44569
2998,44303
2999,43216
3000,41964
3001,40671
3002,38887
3003,38041
3004,37401
3005,36161
3006,34980
3007,33940
3008,31601
3009,30513
3010,28820
3011,28053
3012,26873
3013,25744
3014,25028
3015,24179
3016,23513
3017,22326
3018,21242
3019,20753
3020,20024
3021,19948
3022,19288
3023,18447
3024,17940
3025,17503
3026,17114
3027,16821
3028,16726
3029,16701
3030,16390
3031,16051
3032,16132
3033,16300
3034,16291
3035,16655
3036,16762
3037,16724
3038,16987
3039,17359
3040,17426
3041,17809
3042,18317
3043,18906
3044,19845
3045,20487
3046,21471
3047,22114
3048,23276
3049,25832
3050,26850
3051,27777
3052,28192
3053,29146
3054,30625
3055,32061
3056,35815
3057,36776
3058,38579
3059,39776
3060,41170
3061,42113
3062,43971
3063,45246
3064,46015
3065,46638
3066,47489
3067,48060
3068,48985
3069,49572
3070,50156
3071,50489
3072,50865
3073,51023
3074,51265
3075,51485
3076,51644
3077,51858
3078,51976
3079,51857
3080,51881
3081,51963
3082,51879
3083,51319
3084,51318
3085,50762
3086,50345
3087,49995
3088,49549
3089,48934
3090,48396
3091,47786
3092,47447
3093,46105
3094,45421
3095,44496
3096,43749
3097,42980
3098,41509
3099,40500
3100,40215
3101,39004
3102,37396
3103,36583
3104,34466
3105,33386
3106,32906
3107,31577
3108,30185
3109,28779
3110,27391
3111,26670
3112,25488
3113,24534
3114,23872
3115,23152
3116,21935
3117,21278
3118,21214
3119,20016
3120,19450
3121,18923
3122,18745
3123,18351
3124,18054
3125,17545
3126,17257
3127,17286
3128,16703
3129,16743
3130,16355
3131,16360
3132,16442
3133,16577
3134,16569
3135,16730
3136,16683
3137,17133
3138,17542
3139,17882
3140,18353
3141,18815
3142,19319
3143,20131
3144,20686
3145,20838
3146,21707
3147,22742
3148,23669
3149,24652
3150,25769
3151,27260
3152,28050
3153,29187
3154,30415
3155,31613
3156,34274
3157,38000
3158,39000
3159,40129
3160,40826
3161,42059
3162,43040
3163,43917
3164,45059
3165,46233
3166,47101
3167,48386
3168,48703
3169,49086
3170,49705
3171,49998
3172,50527
3173,51172
3174,51155
3175,51114
3176,51304
3177,51874
3178,51486
3179,51907
3180,52092
3181,52002
3182,51909
3183,51667
3184,51725
3185,51372
3186,51305
3187,50773
3188,50681
3189,50414
3190,49730
3191,49819
3192,48986
3193,47907
3194,47306
3195,47203
3196,46316
3197,45229
3198,44216
3199,43353
3200,42457
3201,42217
3202,40972
3203,39528
3204,38444
3205,36721
3206,35028
3207,33266
3208,32225
3209,30950
3210,28875
3211,27908
3212,26845
3213,25398
3214,24291
3215,23377
3216,22704
3217,22540
3218,21768
3219,20837
3220,20010
3221,19020
3222,18795
3223,18090
3224,18071
3225,17410
3226,17303
3227,16976
3228,16686
3229,16696
3230,16521
3231,16344
3232,16341
3233,16099
3234,16201
3235,16604
3236,16887
3237,16620
3238,16896
3239,17128
3240,17244
3241,17829
3242,18195
3243,19119
3244,19557
3245,20809
3246,21430
3247,22210
3248,23277
3249,24086
3250,25415
3251,26728
3252,28366
3253,29139
3254,30400
3255,32132
3256,33672
3257,35055
3258,36299
3259,37515
3260,39079
3261,40141
3262,41110
3263,42153
3264,43605
3265,44362
3266,45401
3267,47029
3268,47702
3269,48179
3270,48683
3271,49098
3272,49385
3273,50291
3274,50728
3275,51163
3276,51568
3277,51777
3278,51720
3279,51744
3280,52021
3281,51936
3282,51757
3283,51909
3284,51543
3285,51391
3286,51350
3287,50961
3288,50909
3289,51088
3290,50521
3291,49680
3292,49294
3293,48818
3294,48212
3295,47382
3296,46772
3297,46042
3298,45168
3299,43706
3300,42935
3301,41533
3302,40637
3303,39020
3304,37988
3305,37459
3306,36434
3307,34474
3308,33361
3309,32704
3310,31646
3311,30532
3312,28880
3313,27495
3314,26575
3315,25187
3316,24005
3317,23253
3318,22146
3319,21550
3320,20502
3321,19768
3322,19216
3323,18863
3324,18168
3325,17825
3326,17149
3327,17354
3328,17072
3329,16746
3330,16303
3331,16634
3332,16656
3333,15925
3334,16243
3335,16342
3336,16380
3337,16775
3338,16942
3339,17256
3340,17622
3341,18081
3342,18415
3343,19168
3344,20000
3345,21100
3346,22093
3347,22802
3348,23690
3349,24966
3350,25692
3351,27240
3352,28787
3353,29568
3354,31278
3355,32608
3356,35180
3357,36163
3358,37409
3359,39071
3360,39829
3361,41025
3362,42071
3363,42966
3364,43897
3365,45162
3366,45870
3367,47132
3368,48576
3369,49261
3370,49792
3371,50423
3372,50884
3373,50768
3374,51233
3375,51432
3376,51722
3377,51906
3378,51871
3379,52037
3380,51800
3381,51787
3382,51857
3383,51763
3384,51424
3385,51186
3386,51112
3387,51072
3388,50802
3389,50191
3390,49862
3391,49098
3392,48463
3393,48215
3394,47360
3395,46590
3396,45856
3397,45636
3398,44707
3399,42066
3400,41131
3401,39603
3402,38544
3403,36921
3404,35814
3405,33346
3406,32736
3407,31335
3408,29504
3409,28397
3410,27498
3411,26639
3412,25666
3413,24733
3414,23505
3415,23135
3416,21419
3417,20753
3418,20133
3419,19509
3420,19061
3421,18301
3422,17889
3423,17548
3424,17077
3425,16958
3426,16626
3427,16842
3428,16426
3429,16153
3430,16349
3431,16426
3432,16744
3433,16475
3434,16547
3435,16951
3436,17200
3437,17562
3438,18027
3439,18606
3440,18811
3441,19503
3442,20399
3443,20968
3444,22389
3445,23067
3446,24008
3447,25164
3448,26132
3449,28096
3450,29098
3451,30911
3452,32634
3453,33683
3454,34825
3455,36597
3456,37953
3457,39414
3458,41032
3459,41964
3460,43267
3461,43864
3462,44636
3463,45452
3464,46048
3465,47308
3466,47959
3467,48309
3468,49379
3469,50218
3470,50714
3471,50874
3472,51236
3473,51521
3474,51760
3475,51950
3476,51808
3477,52111
3478,51810
3479,51758
3480,51868
3481,51425
3482,51246
3483,50841
3484,50247
3485,49909
3486,48483
3487,47943
3488,47081
3489,46944
3490,46189
3491,44722
3492,44080
3493,42523
3494,41141
3495,40224
3496,39302
3497,38138
3498,36480
3499,35306
3500,34969
3501,32993
3502,31774
3503,30653
3504,29273
3505,28145
3506,27686
3507,26540
3508,25190
3509,24003
3510,23389
3511,22648
3512,21807
3513,21104
3514,20527
3515,19920
3516,18725
3517,17836
3518,17356
3519,17399
3520,16714
3521,16575
3522,16728
3523,16430
3524,16162
3525,16491
3526,16552
3527,16203
3528,16634
3529,16918
3530,17233
3531,17800
3532,17748
3533,18539
3534,19015
3535,19539
3536,20021
3537,20735
3538,21439
3539,21581
3540,22419
3541,23510
3542,24209
3543,25517
3544,26529
3545,26960
3546,28214
3547,29679
3548,30794
3549,32688
3550,33530
3551,35040
3552,36055
3553,37349
3554,38505
3555,40039
3556,41060
3557,42027
3558,43388
3559,44101
3560,45006
3561,45831
3562,46470
3563,47124
3564,47961
3565,48701
3566,49242
3567,49853
3568,50480
3569,50940
3570,51204
3571,51348
3572,51392
3573,51802
3574,52213
3575,52002
3576,51909
3577,51829
3578,51739
3579,51446
3580,51360
3581,51348
3582,51052
3583,50620
3584,49750
3585,49548
3586,49008
3587,48112
3588,47586
3589,46445
3590,46026
3591,44166
3592,43379
3593,42522
3594,41186
3595,40154
3596,38580
3597,37686
3598,36302
3599,35199
3600,34036
3601,32795
3602,32552
3603,31107
3604,30121
3605,29483
3606,27981
3607,26498
3608,25586
3609,24826
3610,23869
3611,23761
3612,22886
3613,21744
3614,20735
3615,19816
3616,19264
3617,18896
3618,18179
3619,17768
3620,17372
3621,16959
3622,16992
3623,16745
3624,16736
3625,16514
3626,16301
3627,16258
3628,16361
3629,16303
3630,16764
3631,16736
3632,17094
3633,17006
3634,17075
3635,17485
3636,18222
3637,18785
3638,19409
3639,19874
3640,20656
3641,21400
3642,21987
3643,22695
3644,24012
3645,25229
3646,26607
3647,27278
3648,28665
3649,30208
3650,31774
3651,32823
3652,34550
3653,36819
3654,37898
3655,39544
3656,40616
3657,41922
3658,42688
3659,43625
3660,45409
3661,46060
3662,47063
3663,47623
3664,48027
3665,48748
3666,49014
3667,49506
3668,50291
3669,50574
3670,50783
3671,50964
3672,51167
3673,51669
3674,52031
3675,51922
3676,51963
3677,52144
3678,52152
3679,51513
3680,51387
3681,51579
3682,51342
3683,51400
3684,50860
3685,50509
3686,50012
3687,49508
3688,49178
3689,48711
3690,47916
3691,47219
3692,46291
3693,45578
3694,44694
3695,43943
3696,43071
3697,42171
3698,40748
3699,39756
3700,38150
3701,37264
3702,35770
3703,34598
3704,33581
3705,32421
3706,32158
3707,30813
3708,29022
3709,27513
3710,26875
3711,25751
3712,25304
3713,24466
3714,23152
3715,22562
3716,21589
3717,20512
3718,19572
3719,18890
3720,18319
3721,17882
3722,17415
3723,17507
3724,17461
3725,16852
3726,16775
3727,16571
3728,16382
3729,16201
3730,16293
3731,16901
3732,16538
3733,16690
3734,16947
3735,17305
3736,17449
3737,17682
3738,18540
3739,19139
3740,20209
3741,20491
3742,20954
3743,21596
3744,22183
3745,23214
3746,23991
3747,24454
3748,25533
3749,26607
3750,28060
3751,28780
3752,30148
3753,31233
3754,32516
3755,33804
3756,35540
3757,36846
3758,38897
3759,39757
3760,40992
3761,41251
3762,42356
3763,43801
3764,44585
3765,45807
3766,46848
3767,47523
3768,48075
3769,48872
3770,49698
3771,50078
3772,50480
3773,50735
3774,51149
3775,51814
3776,51786
3777,51753
3778,51884
3779,51978
3780,52031
3781,51704
3782,51848
3783,51467
3784,51084
3785,51082
3786,50613
3787,50412
3788,49830
3789,49219
3790,48679
3791,47993
3792,47514
3793,47015
3794,46670
3795,45824
3796,44648
3797,43459
3798,42767
3799,41573
3800,41373
3801,40175
3802,38909
3803,37549
3804,35977
3805,34133
3806,33022
3807,32350
3808,31266
3809,30088
3810,28722
3811,27516
3812,27076
3813,26096
3814,24711
3815,23579
3816,22834
3817,22121
3818,21931
3819,21062
3820,19890
3821,19023
3822,18518
3823,18078
3824,17628
3825,17420
3826,16911
3827,16933
3828,16789
3829,16686
3830,16757
3831,16532
3832,16302
3833,16329
3834,16443
3835,16230
3836,16739
3837,16647
3838,17108
3839,17339
3840,17402
3841,17827
3842,18116
3843,18574
3844,19738
3845,20458
3846,21032
3847,22159
3848,22726
3849,23892
3850,24768
3851,25694
3852,26632
3853,27329
3854,28536
3855,30856
3856,32152
3857,33172
3858,620
3859,35613
3860,36715
3861,37935
3862,39037
3863,41147
3864,42068
3865,42978
3866,44261
3867,45093
3868,46373
3869,47209
3870,48187
3871,48625
3872,49346
3873,50319
3874,50502
3875,50526
3876,51390
3877,51329
3878,51696
3879,51696
3880,51710
3881,52210
3882,51905
3883,52073
3884,51700
3885,51825
3886,51325
3887,51248
3888,50820
3889,50992
3890,50628
3891,49641
3892,48792
3893,48339
3894,47965
3895,47019
3896,46216
3897,45480
3898,44168
3899,43373
3900,42414
3901,41578
3902,40663
3903,258
3904,38021
3905,36806
3906,36229
3907,35239
3908,33431
3909,32490
3910,31646
3911,30625
3912,29520
3913,29338
3914,27948
3915,26378
3916,25738
3917,24404
3918,22751
3919,22100
3920,20994
3921,20399
3922,19830
3923,19359
3924,18298
3925,17726
3926,17568
3927,17287
3928,16985
3929,16730
3930,16521
3931,16240
3932,16364
3933,16355
3934,16525
3935,16616
3936,16711
3937,17037
3938,17574
3939,17664
3940,18402
3941,18949
3942,19642
3943,20787
3944,21520
3945,22497
3946,23190
3947,24554
3948,25504
3949,26309
3950,27189
3951,28227
3952,29891
3953,30802
3954,31131
3955,32544
3956,33839
3957,35485
3958,36935
3959,38519
3960,40130
3961,41104
3962,43021
3963,43849
3964,44729
3965,45707
3966,46619
3967,47780
3968,48069
3969,48884
3970,49651
3971,49984
3972,50723
3973,50884
3974,51595
3975,51454
3976,51835
3977,51617
3978,51965
3979,51833
3980,51859
3981,51632
3982,51519
3983,51452
3984,51337
3985,51137
3986,51053
3987,50970
3988,50617
3989,50472
3990,49903
3991,48904
3992,48553
3993,47601
3994,46678
3995,45770
3996,44923
3997,44756
3998,43797
3999,42403
4000,41824
4001,40020
4002,39006
4003,38732
4004,36899
4005,35754
4006,34586
4007,32583
4008,31591
4009,30532
4010,29517
4011,28445
4012,27518
4013,26566
4014,25621
4015,24561
4016,23856
4017,22797
4018,21886
4019,21048
4020,20388
4021,20104
4022,19555
4023,18667
4024,18144
4025,17576
4026,17503
4027,17402
4028,17021
4029,16821
4030,16716
4031,16434
4032,16450
4033,16080
4034,16318
4035,16619
4036,16640
4037,16576
4038,17309
4039,17134
4040,17716
4041,18048
4042,18531
4043,19296
4044,20205
4045,21074
4046,21776
4047,22892
4048,24475
4049,25254
4050,26097
4051,27209
4052,28912
4053,30127
4054,31627
4055,33962
4056,35070
4057,36219
4058,37993
4059,39167
4060,40713
4061,41651
4062,43599
4063,44080
4064,45013
4065,46292
4066,46917
4067,47039
4068,48059
4069,49040
4070,49441
4071,49969
4072,50586
4073,560
4074,51181
4075,51502
4076,51640
4077,51625
4078,51693
4079,51908
4080,52408
4081,51685
4082,51581
4083,51148
4084,50975
4085,50828
4086,50650
4087,50142
4088,49770
4089,49045
4090,48559
4091,47964
4092,46832
4093,46247
4094,45283
4095,44380
4096,43367
4097,42200
4098,41085
4099,39575
4100,38814
4101,37292
4102,36154
4103,35027
4104,33862
4105,33717
4106,32819
4107,31603
4108,30564
4109,28788
4110,28159
4111,26966
4112,26685
4113,25506
4114,24455
4115,23845
4116,23168
4117,22367
4118,21349
4119,20911
4120,19901
4121,19289
4122,18439
4123,18023
4124,17669
4125,17812
4126,17250
4127,16879
4128,16857
4129,16760
4130,16444
4131,16615
4132,16592
4133,16268
4134,16397
4135,16250
4136,16521
4137,16833
4138,17044
4139,17182
4140,17305
4141,17716
4142,18325
4143,19039
4144,19430
4145,20125
4146,20823
4147,21391
4148,22351
4149,23261
4150,24518
4151,25833
4152,26786
4153,28011
4154,29203
4155,30706
4156,32184
4157,33900
4158,35753
4159,36762
4160,37071
4161,38672
4162,39559
4163,41185
4164,42425
4165,44020
4166,44812
4167,45499
4168,46674
4169,47238
4170,48061
4171,48429
4172,48831
4173,49772
4174,50274
4175,50682
4176,51034
4177,51521
4178,51581
4179,51864
4180,52126
4181,52125
4182,51875
4183,52120
4184,51588
4185,51802
4186,51510
4187,51101
4188,50680
4189,50688
4190,50255
4191,49730
4192,49104
4193,48448
4194,47819
4195,46900
4196,46311
4197,45306
4198,44618
4199,43721
4200,42864
4201,41919
4202,41087
4203,39990
4204,38326
4205,37379
4206,36237
4207,35154
4208,33894
4209,33016
4210,31707
4211,29991
4212,28321
4213,25856
4214,25101
4215,24124
4216,23089
4217,22322
4218,21380
4219,20776
4220,20019
4221,19296
4222,18908
4223,18038
4224,17923
4225,17248
4226,16883
4227,16773
4228,16797
4229,16518
4230,16474
4231,16565
4232,16408
4233,16387
4234,16511
4235,16702
4236,16923
4237,17094
4238,17685
4239,18364
4240,19055
4241,19421
4242,20194
4243,20793
4244,21571
4245,22227
4246,23236
4247,24554
4248,25400
4249,26234
4250,26969
4251,28760
4252,29954
4253,31624
4254,33855
4255,35178
4256,36368
4257,37439
4258,39118
4259,40423
4260,41944
4261,43109
4262,43726
4263,45593
4264,46382
4265,46917
4266,47884
4267,48523
4268,49389
4269,50169
4270,50189
4271,51009
4272,51125
4273,51479
4274,52148
4275,51824
4276,52159
4277,51679
4278,51829
4279,51616
4280,51394
4281,51415
4282,51069
4283,51347
4284,50626
4285,50144
4286,50070
4287,49598
4288,48873
4289,48597
4290,47787
4291,46254
4292,45266
4293,44582
4294,43712
4295,42873
4296,42004
4297,41035
4298,37887
4299,36871
4300,35147
4301,33846
4302,32200
4303,31118
4304,30571
4305,28796
4306,28063
4307,26873
4308,25995
4309,25030
4310,24221
4311,23424
4312,22398
4313,21625
4314,20629
4315,20199
4316,19412
4317,19029
4318,18405
4319,17903
4320,17363
4321,17296
4322,17188
4323,16977
4324,16819
4325,16664
4326,16522
4327,16461
4328,16168
4329,16240
4330,16547
4331,16629
4332,16688
4333,17117
4334,17551
4335,17824
4336,18566
4337,18923
4338,19987
4339,20438
4340,21466
4341,22129
4342,23280
4343,24534
4344,25356
4345,26824
4346,27477
4347,28351
4348,29357
4349,31665
4350,32664
4351,33959
4352,35201
4353,36256
4354,37487
4355,38548
4356,39490
4357,41173
4358,42138
4359,43524
4360,46043
4361,46648
4362,47216
4363,47442
4364,48094
4365,49066
4366,49560
4367,50652
4368,50811
4369,51391
4370,51910
4371,51636
4372,51703
4373,51810
4374,52125
4375,51917
4376,51486
4377,51537
4378,51452
4379,51197
4380,50665
4381,50407
4382,49995
4383,49739
4384,48858
4385,48092
4386,47701
4387,46824
4388,45731
4389,44995
4390,43728
4391,42929
4392,41673
4393,40566
4394,39456
4395,37912
4396,36867
4397,35592
4398,34525
4399,33301
4400,32963
4401,31543
4402,29962
4403,28785
4404,27444
4405,26012
4406,25033
4407,23801
4408,23125
4409,22958
4410,21910
4411,21940
4412,20944
4413,20617
4414,19723
4415,18998
4416,18103
4417,17822
4418,17085
4419,17032
4420,16766
4421,16758
4422,16406
4423,16273
4424,16324
4425,16474
4426,16544
4427,16644
4428,16851
4429,16839
4430,17229
4431,17399
4432,17805
4433,19191
4434,19818
4435,20390
4436,21065
4437,21780
4438,23326
4439,24010
4440,25358
4441,26358
4442,27139
4443,28074
4444,28575
4445,30079
4446,31542
4447,32791
4448,35194
4449,35957
4450,37381
4451,39141
4452,40138
4453,40640
4454,41604
4455,42914
4456,44474
4457,44998
4458,46427
4459,47210
4460,47620
4461,48133
4462,48558
4463,49454
4464,49945
4465,50233
4466,50395
4467,50740
4468,51304
4469,51441
4470,51409
4471,51621
4472,51674
4473,52029
4474,51899
4475,51718
4476,51763
4477,51618
4478,51515
4479,51274
4480,50806
4481,50478
4482,50097
4483,49332
4484,49097
4485,48105
4486,47243
4487,46263
4488,45403
4489,44817
4490,43312
4491,42426
4492,42224
4493,41507
4494,40631
4495,39640
4496,38491
4497,36958
4498,35923
4499,34516
4500,33374
4501,31619
4502,30531
4503,29398
4504,28534
4505,26830
4506,26159
4507,25119
4508,24353
4509,23535
4510,22777
4511,22480
4512,21850
4513,20848
4514,19891
4515,19119
4516,18392
4517,18313
4518,17577
4519,17022
4520,16905
4521,16770
4522,16731
4523,16341
4524,16378
4525,16532
4526,16585
4527,16547
4528,16877
4529,17041
4530,17315
4531,17475
4532,17920
4533,18449
4534,19008
4535,19521
4536,20351
4537,20895
4538,21837
4539,22361
4540,23014
4541,23637
4542,25121
4543,26782
4544,27698
4545,28900
4546,30487
4547,32186
4548,33660
4549,34580
4550,36297
4551,37353
4552,38218
4553,39546
4554,41106
4555,42177
4556,43409
4557,44263
4558,45901
4559,46700
4560,47309
4561,48268
4562,48912
4563,48737
4564,49665
4565,49559
4566,50856
4567,50822
4568,51242
4569,51242
4570,51763
4571,51541
4572,51632
4573,52023
4574,51935
4575,51666
4576,51675
4577,51722
4578,51410
4579,51617
4580,51193
4581,51173
4582,50798
4583,50345
4584,49869
4585,49360
4586,48582
4587,48259
4588,47838
4589,46860
4590,45729
4591,45258
4592,43767
4593,43080
4594,41564
4595,40682
4596,39154
4597,37355
4598,36627
4599,33959
4600,32962
4601,31547
4602,30005
4603,29092
4604,27422
4605,26676
4606,25871
4607,24666
4608,23879
4609,23182
4610,22152
4611,21405
4612,19991
4613,19572
4614,18925
4615,18584
4616,18233
4617,17611
4618,17200
4619,16883
4620,16570
4621,16300
4622,16553
4623,16223
4624,16324
4625,16275
4626,16741
4627,16724
4628,16827
4629,17225
4630,17349
4631,17959
4632,18420
4633,19517
4634,20231
4635,20732
4636,21707
4637,22350
4638,23574
4639,24403
4640,25056
4641,26158
4642,27220
4643,27957
4644,28720
4645,30275
4646,31212
4647,31900
4648,33354
4649,34111
4650,36147
4651,37051
4652,39591
4653,40413
4654,41352
4655,42000
4656,42972
4657,44697
4658,45429
4659,46237
4660,47192
4661,47924
4662,48612
4663,48949
4664,49033
4665,49598
4666,50412
4667,50832
4668,50898
4669,710
4670,51482
4671,51511
4672,51676
4673,51618
4674,52007
4675,51929
4676,51814
4677,51876
4678,52024
4679,51420
4680,51326
4681,50885
4682,50439
4683,50119
4684,49579
4685,49465
4686,48498
4687,48143
4688,47213
4689,46932
4690,46146
4691,44148
4692,43404
4693,41581
4694,40101
4695,39785
4696,38735
4697,36858
4698,35758
4699,35219
4700,34041
4701,33008
4702,32320
4703,31186
4704,30312
4705,29024
4706,27883
4707,26425
4708,25725
4709,24245
4710,23599
4711,23000
4712,21906
4713,21439
4714,20773
4715,19849
4716,19280
4717,18714
4718,17839
4719,17503
4720,17068
4721,17001
4722,16578
4723,16566
4724,16264
4725,16030
4726,16126
4727,16367
4728,16604
4729,16916
4730,17188
4731,17548
4732,17655
4733,18065
4734,18783
4735,19852
4736,20262
4737,20954
4738,22546
4739,23277
4740,23984
4741,25231
4742,26593
4743,27445
4744,28490
4745,29946
4746,30904
4747,32081
4748,33090
4749,34872
4750,38478
4751,39618
4752,40562
4753,42055
4754,43448
4755,44275
4756,45843
4757,46408
4758,47354
4759,47963
4760,48837
4761,49971
4762,49962
4763,49859
4764,51223
4765,51289
4766,51254
4767,51376
4768,51304
4769,51684
4770,51669
4771,51736
4772,52061
4773,52279
4774,51967
4775,51641
4776,51866
4777,51124
4778,50916
4779,50622
4780,50346
4781,49839
4782,49566
4783,48950
4784,48387
4785,47877
4786,47143
4787,46684
4788,45848
4789,44880
4790,43813
4791,43183
4792,42041
4793,41723
4794,40958
4795,40135
4796,39069
4797,38212
4798,36301
4799,34568
4800,33660
4801,32067
4802,30436
4803,29279
4804,27938
4805,27703
4806,26406
4807,25085
4808,24544
4809,22747
4810,21957
4811,21315
4812,20634
4813,19823
4814,18774
4815,18186
4816,18010
4817,17332
4818,17097
4819,16811
4820,16377
4821,16565
4822,16083
4823,16529
4824,16614
4825,16767
4826,16998
4827,16973
4828,17540
4829,17631
4830,17921
4831,18370
4832,19143
4833,19668
4834,21072
4835,21865
4836,22404
4837,23407
4838,24415
4839,25524
4840,27080
4841,28684
4842,30248
4843,31582
4844,32376
4845,560
4846,35331
4847,37400
4848,38969
4849,39884
4850,41632
4851,42567
4852,43642
4853,44687
4854,45707
4855,46843
4856,47285
4857,48379
4858,49270
4859,49546
4860,49729
4861,50619
4862,50767
4863,51113
4864,51430
4865,51510
4866,51660
4867,51928
4868,51833
4869,52086
4870,51952
4871,51964
4872,52051
4873,51782
4874,51760
4875,51486
4876,51058
4877,50871
4878,51009
4879,50541
4880,50404
4881,49953
4882,49594
4883,49374
4884,48327
4885,48112
4886,47374
4887,47322
4888,46289
4889,45861
4890,44841
4891,43181
4892,42634
4893,41057
4894,40044
4895,38386
4896,37285
4897,36697
4898,35685
4899,33843
4900,33058
4901,31202
4902,30170
4903,29459
4904,28264
4905,26788
4906,25840
4907,24651
4908,23641
4909,22778
4910,21838
4911,21056
4912,20224
4913,19567
4914,18490
4915,17907
4916,17643
4917,17183
4918,16973
4919,16859
4920,16881
4921,16643
4922,16262
4923,16384
4924,16356
4925,16323
4926,16241
4927,16562
4928,16855
4929,16937
4930,17743
4931,18315
4932,18719
4933,19626
4934,20224
4935,21175
4936,23311
4937,24115
4938,25150
4939,26162
4940,27582
4941,28719
4942,31116
4943,32084
4944,33191
4945,34912
4946,35775
4947,36693
4948,37454
4949,38591
4950,39608
4951,41247
4952,42179
4953,43044
4954,44341
4955,45679
4956,46387
4957,47158
4958,48272
4959,48712
4960,49494
4961,50098
4962,50521
4963,50970
4964,50774
4965,51186
4966,51355
4967,51833
4968,51542
4969,51681
4970,52269
4971,52020
4972,51842
4973,51685
4974,51508
4975,51089
4976,51064
4977,50708
4978,50206
4979,50046
4980,49341
4981,48160
4982,47740
4983,47206
4984,46082
4985,45392
4986,44995
4987,44142
4988,42425
4989,41879
4990,40550
4991,39537
4992,39214
4993,37979
4994,36620
4995,35134
4996,32735
4997,31607
4998,30173
4999,28857
5000,27928
5001,26527
5002,25548
5003,25384
5004,23774
5005,22723
5006,21975
5007,21272
5008,20521
5009,19756
5010,19208
5011,18153
5012,17809
5013,17468
5014,17466
5015,17031
5016,16836
5017,16684
5018,16841
5019,16473
5020,16257
5021,16191
5022,16653
5023,16321
5024,16608
5025,16650
5026,16991
5027,18303
5028,18453
5029,19077
5030,19746
5031,20691
5032,21444
5033,22951
5034,23792
5035,24557
5036,25600
5037,26818
5038,28242
5039,30921
5040,31872
5041,33322
5042,34514
5043,35767
5044,36630
5045,37761
5046,39142
5047,40146
5048,41199
5049,42173
5050,43007
5051,44074
5052,44699
5053,45992
5054,46385
5055,46703
5056,47583
5057,49115
5058,50155
5059,50071
5060,50556
5061,51205
5062,51418
5063,51611
5064,51772
5065,51976
5066,51920
5067,52220
5068,51823
5069,51611
5070,51685
5071,51560
5072,51221
5073,51042
5074,50462
5075,50406
5076,50321
5077,49895
5078,49009
5079,48330
5080,47600
5081,47167
5082,46447
5083,45754
5084,44568
5085,43720
5086,41945
5087,39576
5088,38546
5089,37376
5090,35778
5091,34480
5092,33495
5093,32132
5094,30391
5095,29554
5096,27835
5097,27006
5098,26512
5099,24824
5100,23208
5101,22357
5102,21629
5103,20877
5104,20479
5105,19817
5106,19296
5107,18738
5108,18070
5109,18023
5110,17657
5111,17366
5112,16954
5113,16813
5114,17017
5115,16550
5116,16784
5117,16501
5118,16223
5119,16427
5120,16378
5121,16542
5122,16715
5123,16753
5124,17123
5125,17269
5126,17303
5127,17696
5128,18893
5129,19524
5130,20052
5131,21040
5132,22159
5133,22929
5134,24502
5135,26133
5136,26783
5137,27778
5138,28601
5139,30494
5140,31593
5141,33439
5142,35153
5143,36198
5144,38127
5145,39102
5146,40465
5147,41143
5148,43575
5149,44341
5150,45116
5151,46442
5152,47392
5153,47954
5154,48762
5155,49554
5156,50123
5157,50652
5158,50756
5159,50939
5160,51803
5161,51613
5162,51651
5163,51868
5164,51873
5165,52013
5166,51801
5167,51447
5168,51320
5169,51401
5170,51200
5171,51196
5172,50344
5173,50191
5174,49570
5175,49256
5176,48546
5177,47674
5178,47223
5179,45955
5180,45382
5181,44440
5182,43285
5183,43050
5184,41981
5185,40503
5186,39796
5187,38189
5188,36836
5189,36191
5190,35228
5191,33360
5192,32275
5193,30388
5194,29562
5195,29139
5196,27941
5197,26637
5198,25474
5199,24619
5200,23832
5201,23274
5202,21948
5203,21530
5204,20739
5205,19508
5206,18944
5207,18582
5208,17549
5209,17490
5210,17387
5211,17251
5212,16812
5213,16656
5214,16598
5215,16514
5216,16028
5217,16564
5218,16657
5219,16511
5220,16988
5221,17079
5222,17231
5223,17561
5224,17788
5225,18731
5226,19199
5227,19794
5228,20743
5229,21479
5230,22439
5231,23210
5232,24878
5233,25611
5234,26711
5235,27920
5236,29402
5237,31612
5238,32758
5239,34486
5240,35403
5241,36828
5242,38546
5243,40204
5244,41197
5245,42359
5246,43933
5247,44526
5248,45962
5249,46424
5250,47398
5251,48184
5252,49024
5253,49662
5254,49912
5255,50748
5256,50619
5257,51497
5258,51241
5259,51479
5260,51525
5261,51876
5262,51918
5263,51925
5264,51809
5265,52032
5266,51543
5267,51432
5268,51471
5269,50993
5270,50873
5271,50561
5272,50400
5273,49544
5274,48985
5275,48575
5276,48017
5277,47313
5278,46291
5279,45079
5280,44485
5281,43671
5282,41958
5283,40988
5284,39875
5285,38430
5286,37240
5287,35843
5288,34456
5289,32637
5290,31584
5291,31093
5292,29934
5293,28270
5294,26808
5295,25918
5296,24984
5297,24911
5298,23794
5299,22671
5300,21274
5301,20641
5302,19916
5303,19381
5304,18331
5305,17722
5306,17423
5307,17450
5308,17202
5309,16969
5310,16932
5311,16638
5312,16460
5313,16340
5314,16264
5315,16205
5316,16643
5317,16631
5318,16613
5319,16927
5320,17134
5321,17451
5322,17526
5323,18074
5324,18092
5325,18606
5326,19244
5327,19947
5328,20502
5329,20997
5330,21832
5331,22200
5332,22874
5333,23969
5334,24983
5335,26760
5336,27843
5337,28867
5338,30476
5339,31621
5340,32477
5341,34675
5342,35844
5343,36929
5344,38020
5345,39338
5346,40749
5347,41730
5348,42193
5349,43102
5350,44463
5351,45592
5352,46351
5353,46927
5354,47715
5355,48213
5356,49228
5357,49622
5358,50299
5359,50674
5360,50670
5361,50952
5362,51047
5363,51654
5364,51755
5365,51813
5366,51770
5367,51817
5368,51957
5369,51789
5370,51661
5371,51546
5372,51770
5373,50943
5374,50535
5375,50366
5376,49656
5377,49698
5378,48569
5379,48133
5380,46710
5381,44880
5382,44120
5383,43283
5384,41987
5385,40824
5386,40352
5387,39403
5388,35917
5389,34930
5390,33894
5391,33537
5392,32178
5393,31217
5394,29747
5395,28777
5396,27734
5397,26226
5398,25332
5399,24215
5400,23530
5401,22555
5402,21600
5403,21244
5404,20643
5405,19743
5406,19314
5407,18715
5408,18050
5409,17767
5410,17460
5411,17137
5412,17079
5413,16612
5414,16355
5415,16218
5416,16108
5417,16541
5418,16659
5419,16535
5420,16627
5421,16874
5422,17131
5423,17362
5424,17759
5425,18305
5426,18908
5427,19365
5428,20054
5429,20891
5430,21824
5431,22562
5432,23208
5433,24538
5434,25396
5435,26974
5436,28431
5437,28973
5438,31602
5439,32777
5440,34084
5441,35426
5442,36417
5443,38117
5444,39257
5445,40213
5446,41131
5447,42499
5448,43625
5449,44771
5450,45589
5451,46808
5452,47261
5453,48273
5454,48495
5455,49115
5456,49741
5457,49673
5458,50326
5459,50500
5460,50875
5461,50904
5462,51431
5463,51650
5464,51712
5465,52020
5466,52160
5467,51978
5468,51665
5469,51802
5470,51314
5471,51319
5472,51211
5473,50603
5474,50316
5475,49536
5476,49133
5477,48275
5478,47712
5479,46356
5480,45656
5481,44958
5482,43709
5483,42998
5484,41628
5485,39945
5486,38919
5487,37361
5488,36089
5489,33936
5490,32577
5491,31461
5492,29776
5493,28757
5494,27662
5495,26762
5496,25762
5497,24514
5498,23376
5499,22669
5500,21890
5501,20587
5502,19964
5503,19315
5504,18535
5505,18461
5506,17720
5507,17618
5508,17149
5509,16727
5510,16704
5511,16791
5512,16620
5513,16332
5514,16394
5515,16326
5516,16449
5517,16450
5518,16348
5519,16851
5520,16860
5521,17364
5522,17823
5523,18101
5524,18139
5525,18875
5526,19378
5527,20169
5528,20929
5529,21037
5530,22378
5531,23371
5532,24216
5533,25078
5534,26085
5535,26936
5536,27924
5537,28961
5538,30094
5539,31700
5540,32613
5541,34079
5542,35422
5543,36563
5544,37722
5545,38469
5546,39855
5547,40877
5548,41876
5549,43296
5550,43855
5551,45727
5552,46521
5553,47041
5554,48052
5555,48719
5556,49295
5557,49731
5558,50056
5559,50617
5560,51186
5561,51114
5562,51340
5563,51325
5564,51671
5565,52142
5566,51594
5567,51991
5568,51921
5569,51509
5570,51447
5571,51202
5572,51194
5573,50914
5574,50858
5575,50374
5576,49858
5577,49437
5578,48802
5579,48156
5580,47195
5581,46402
5582,46006
5583,45279
5584,44442
5585,44075
5586,43102
5587,41818
5588,38787
5589,37140
5590,36092
5591,34752
5592,33653
5593,31901
5594,30799
5595,28599
5596,27621
5597,26608
5598,25472
5599,24504
5600,24307
5601,23321
5602,21888
5603,21152
5604,20589
5605,19914
5606,19569
5607,19069
5608,18157
5609,17541
5610,17277
5611,17047
5612,16995
5613,16795
5614,16789
5615,16705
5616,560
5617,16045
5618,16329
5619,16558
5620,16675
5621,16812
5622,16922
5623,17552
5624,17942
5625,18446
5626,18744
5627,19464
5628,19938
5629,20668
5630,21927
5631,22686
5632,23402
5633,24756
5634,25383
5635,26678
5636,27968
5637,28976
5638,30069
5639,31258
5640,32376
5641,34835
5642,35602
5643,37076
5644,38686
5645,39869
5646,40666
5647,41902
5648,42895
5649,43601
5650,44992
5651,45616
5652,47035
5653,47755
5654,48536
5655,48968
5656,49469
5657,50360
5658,51071
5659,50982
5660,51344
5661,51689
5662,51804
5663,51694
5664,51992
5665,52034
5666,51714
5667,51798
5668,51351
5669,51240
5670,50559
5671,50313
5672,49501
5673,49054
5674,48334
5675,47465
5676,46246
5677,45805
5678,44791
5679,43729
5680,42688
5681,41262
5682,40339
5683,38209
5684,37321
5685,35537
5686,34220
5687,33016
5688,32645
5689,31336
5690,29998
5691,28069
5692,27399
5693,26239
5694,24991
5695,23795
5696,23286
5697,22652
5698,21889
5699,20796
5700,20370
5701,19522
5702,18842
5703,18173
5704,17772
5705,17571
5706,17405
5707,16925
5708,16663
5709,16638
5710,16217
5711,16234
5712,16136
5713,16409
5714,16364
5715,16494
5716,16868
5717,17016
5718,17329
5719,17606
5720,17747
5721,18301
5722,18843
5723,19808
5724,20218
5725,20858
5726,22310
5727,23085
5728,23796
5729,25971
5730,27478
5731,28510
5732,29065
5733,30556
5734,31759
5735,34724
5736,36551
5737,37738
5738,39329
5739,40407
5740,41790
5741,42856
5742,43740
5743,44607
5744,45416
5745,45898
5746,47154
5747,47926
5748,47931
5749,48649
5750,49671
5751,50049
5752,50643
5753,50954
5754,51104
5755,51175
5756,51398
5757,51443
5758,51861
5759,51964
5760,52167
5761,52027
5762,51908
5763,51848
5764,51682
5765,51160
5766,51187
5767,50602
5768,50311
5769,49714
5770,49327
5771,48640
5772,47984
5773,47142
5774,45962
5775,45093
5776,44475
5777,43182
5778,42223
5779,40774
5780,38293
5781,37342
5782,35955
5783,34651
5784,33661
5785,32679
5786,31284
5787,30140
5788,29112
5789,28132
5790,26561
5791,25501
5792,24383
5793,23514
5794,22523
5795,22159
5796,21547
5797,20177
5798,19594
5799,18981
5800,18510
5801,18328
5802,17919
5803,17330
5804,17037
5805,16806
5806,16814
5807,16527
5808,16268
5809,16254
5810,16221
5811,16520
5812,16623
5813,16807
5814,17052
5815,17503
5816,17828
5817,17898
5818,18150
5819,19021
5820,19986
5821,20589
5822,21215
5823,22115
5824,22721
5825,23386
5826,24158
5827,24678
5828,25511
5829,26964
5830,27685
5831,29615
5832,30674
5833,32388
5834,33561
5835,33957
5836,35479
5837,37236
5838,38187
5839,39448
5840,40427
5841,41386
5842,42410
5843,43722
5844,44442
5845,46230
5846,46861
5847,47496
5848,48205
5849,48970
5850,49576
5851,50530
5852,50344
5853,50486
5854,51066
5855,51367
5856,51727
5857,51639
5858,52053
5859,52131
5860,52039
5861,51895
5862,51811
5863,51514
5864,51267
5865,50948
5866,51031
5867,50427
5868,49858
5869,49103
5870,48747
5871,47558
5872,46422
5873,45475
5874,45004
5875,43996
5876,42569
5877,41258
5878,40326
5879,38760
5880,37006
5881,35956
5882,34296
5883,33042
5884,31507
5885,30174
5886,29740
5887,28661
5888,27518
5889,26638
5890,25667
5891,24939
5892,24142
5893,23042
5894,21843
5895,21109
5896,20056
5897,19711
5898,18793
5899,18208
5900,17798
5901,17138
5902,17108
5903,16849
5904,16655
5905,16707
5906,16332
5907,16357
5908,16142
5909,16456
5910,16590
5911,16575
5912,16966
5913,17040
5914,17323
5915,17435
5916,17743
5917,18212
5918,18674
5919,19265
5920,19955
5921,20633
5922,21322
5923,22031
5924,22746
5925,23823
5926,24675
5927,24925
5928,26099
5929,29100
5930,30228
5931,31174
5932,31406
5933,32442
5934,33752
5935,34895
5936,36087
5937,38308
5938,39115
5939,39968
5940,41026
5941,41920
5942,42734
5943,42994
5944,44140
5945,44999
5946,45220
5947,46394
5948,46937
5949,47904
5950,49027
5951,49393
5952,50084
5953,50383
5954,50853
5955,51306
5956,51353
5957,51264
5958,51734
5959,51972
5960,51886
5961,51926
5962,51981
5963,51915
5964,51711
5965,51605
5966,51484
5967,51115
5968,50864
5969,50486
5970,50141
5971,49855
5972,49193
5973,48599
5974,47970
5975,47429
5976,46814
5977,45944
5978,45154
5979,43865
5980,43249
5981,42248
5982,41504
5983,40328
5984,39205
5985,38267
5986,36644
5987,35377
5988,33485
5989,32746
5990,31223
5991,28603
5992,27541
5993,26759
5994,24041
5995,23225
5996,22612
5997,21487
5998,20757
5999,19871
6000,18362
6001,17817
6002,17533
6003,17210
6004,17035
6005,16659
6006,16695
6007,16290
6008,16105
6009,15980
6010,16190
6011,16261
6012,16428
6013,16739
6014,17488
6015,17572
6016,17998
6017,18637
6018,19087
6019,19817
6020,21003
6021,22041
6022,22727
6023,23576
6024,24317
6025,25604
6026,26483
6027,28196
6028,29124
6029,30137
6030,31353
6031,32480
6032,33630
6033,35539
6034,36621
6035,37066
6036,38327
6037,41546
6038,42363
6039,43377
6040,44122
6041,45410
6042,46157
6043,46898
6044,47950
6045,48290
6046,48994
6047,49365
6048,50093
6049,50899
6050,51191
6051,51523
6052,51699
6053,51952
6054,52036
6055,52174
6056,52066
6057,52045
6058,52032
6059,51438
6060,51644
6061,51308
6062,51313
6063,51200
6064,50565
6065,50119
6066,49988
6067,49061
6068,48798
6069,48322
6070,47571
6071,47225
6072,45809
6073,44784
6074,43966
6075,42654
6076,41880
6077,40282
6078,38708
6079,37715
6080,35943
6081,34801
6082,33079
6083,32067
6084,30640
6085,29624
6086,28562
6087,27880
6088,26196
6089,24879
6090,23691
6091,22532
6092,21849
6093,21144
6094,20383
6095,19766
6096,18686
6097,17891
6098,17797
6099,17494
6100,16980
6101,16593
6102,16707
6103,16475
6104,16413
6105,16356
6106,16287
6107,16608
6108,16671
6109,17162
6110,17073
6111,17607
6112,17655
6113,18202
6114,18612
6115,19476
6116,19928
6117,20389
6118,20907
6119,21717
6120,22846
6121,23865
6122,24766
6123,26101
6124,27154
6125,27288
6126,28593
6127,31935
6128,33099
6129,34288
6130,34556
6131,35883
6132,37899
6133,38815
6134,41098
6135,41952
6136,42944
6137,44028
6138,45003
6139,46240
6140,47256
6141,48162
6142,48717
6143,49225
6144,49757
6145,50509
6146,50541
6147,51040
6148,50957
6149,51354
6150,51557
6151,51701
6152,51765
6153,51925
6154,52116
6155,51915
6156,51740
6157,51865
6158,51560
6159,51312
6160,50910
6161,50573
6162,50342
6163,49827
6164,49674
6165,47877
6166,47406
6167,46328
6168,45477
6169,43915
6170,42999
6171,41648
6172,40990
6173,39779
6174,38405
6175,37084
6176,35321
6177,34210
6178,33557
6179,31798
6180,30731
6181,29672
6182,28328
6183,26802
6184,25676
6185,24716
6186,23225
6187,22558
6188,21894
6189,21243
6190,20660
6191,19952
6192,19260
6193,18614
6194,17964
6195,17372
6196,17207
6197,16983
6198,16559
6199,16502
6200,16500
6201,16529
6202,16296
6203,16319
6204,16599
6205,16656
6206,16842
6207,17201
6208,18212
6209,18807
6210,19278
6211,19686
6212,20378
6213,21009
6214,21737
6215,22249
6216,22922
6217,24777
6218,25462
6219,26644
6220,28024
6221,29117
6222,30873
6223,31893
6224,32339
6225,34246
6226,35485
6227,36588
6228,38299
6229,39408
6230,39713
6231,41022
6232,42402
6233,43822
6234,44459
6235,44978
6236,45748
6237,46612
6238,47127
6239,47750
6240,48556
6241,49030
6242,50311
6243,50507
6244,51223
6245,51275
6246,51209
6247,51359
6248,51716
6249,51949
6250,52023
6251,52286
6252,51680
6253,51837
6254,51756
6255,51503
6256,51397
6257,50860
6258,50503
6259,50219
6260,50213
6261,49234
6262,48865
6263,48452
6264,47822
6265,47714
6266,46870
6267,45802
6268,45244
6269,44237
6270,43467
6271,42874
6272,41818
6273,40436
6274,39646
6275,38540
6276,37007
6277,36046
6278,34837
6279,33200
6280,31831
6281,30428
6282,28837
6283,27579
6284,26843
6285,25707
6286,24942
6287,23961
6288,23039
6289,22488
6290,21850
6291,21193
6292,20163
6293,19747
6294,18910
6295,18092
6296,17683
6297,17450
6298,16922
6299,16966
6300,16589
6301,16485
6302,16189
6303,16079
6304,16114
6305,16565
6306,16742
6307,16558
6308,17019
6309,17208
6310,17661
6311,18070
6312,18413
6313,19080
6314,20004
6315,20671
6316,21308
6317,21961
6318,22782
6319,23545
6320,23756
6321,24428
6322,25233
6323,25870
6324,27577
6325,28551
6326,29262
6327,30244
6328,31190
6329,32755
6330,34411
6331,37101
6332,38195
6333,39486
6334,40490
6335,41511
6336,42841
6337,43786
6338,44301
6339,45017
6340,46128
6341,46650
6342,47710
6343,48349
6344,48686
6345,49020
6346,50001
6347,50261
6348,51057
6349,50934
6350,51196
6351,51289
6352,51669
6353,51815
6354,51965
6355,51985
6356,51647
6357,51823
6358,51692
6359,51375
6360,51128
6361,51182
6362,50847
6363,50507
6364,49792
6365,49618
6366,49156
6367,48491
6368,47919
6369,47350
6370,46462
6371,45660
6372,44123
6373,43617
6374,42613
6375,41593
6376,40703
6377,39618
6378,38686
6379,38094
6380,37032
6381,34675
6382,33376
6383,32488
6384,30964
6385,29583
6386,27937
6387,27140
6388,25134
6389,24341
6390,23632
6391,22434
6392,21804
6393,20784
6394,20330
6395,19752
6396,18765
6397,18249
6398,17887
6399,17514
6400,17274
6401,16993
6402,16912
6403,16656
6404,16593
6405,16304
6406,16164
6407,16409
6408,16374
6409,16644
6410,16728
6411,17197
6412,17347
6413,17635
6414,17850
6415,18459
6416,18863
6417,19639
6418,20350
6419,21347
6420,22517
6421,23116
6422,24299
6423,25157
6424,26626
6425,27911
6426,29034
6427,30872
6428,32679
6429,33799
6430,34839
6431,35291
6432,36761
6433,39033
6434,40436
6435,41522
6436,42304
6437,43276
6438,45110
6439,45784
6440,46563
6441,47133
6442,48310
6443,48493
6444,49171
6445,49592
6446,50493
6447,50636
6448,50627
6449,51045
6450,51454
6451,51412
6452,52147
6453,51615
6454,51757
6455,51972
6456,51929
6457,51732
6458,51645
6459,51936
6460,51358
6461,51139
6462,50699
6463,50447
6464,49954
6465,49819
6466,49159
6467,48187
6468,47923
6469,47114
6470,46148
6471,46097
6472,45110
6473,43924
6474,43081
6475,41548
6476,40826
6477,39714
6478,38660
6479,37535
6480,36731
6481,34690
6482,33900
6483,32195
6484,30551
6485,29628
6486,28814
6487,26911
6488,26121
6489,25120
6490,23986
6491,23217
6492,22012
6493,21558
6494,21076
6495,20601
6496,19542
6497,18988
6498,18534
6499,18088
6500,17191
6501,17025
6502,17055
6503,16670
6504,16405
6505,16476
6506,16488
6507,16285
6508,16393
6509,16751
6510,16606
6511,16925
6512,17007
6513,17111
6514,17476
6515,17931
6516,18657
6517,19225
6518,20300
6519,21031
6520,21851
6521,22625
6522,23590
6523,24895
6524,25721
6525,26204
6526,27083
6527,28384
6528,29692
6529,31213
6530,33804
6531,35024
6532,36075
6533,37466
6534,39010
6535,39925
6536,41348
6537,44304
6538,45066
6539,45887
6540,47282
6541,47873
6542,48344
6543,49595
6544,49879
6545,50537
6546,50996
6547,51404
6548,51319
6549,51740
6550,51470
6551,51985
6552,52105
6553,51741
6554,51840
6555,51833
6556,51580
6557,51678
6558,51729
6559,50984
6560,51163
6561,50920
6562,50391
6563,50362
6564,49499
6565,48968
6566,47383
6567,47048
6568,46132
6569,45658
6570,44887
6571,43601
6572,42702
6573,41636
6574,40580
6575,38065
6576,37007
6577,35248
6578,34110
6579,32452
6580,31178
6581,30384
6582,29052
6583,28175
6584,27412
6585,26605
6586,25706
6587,24775
6588,23226
6589,21517
6590,20808
6591,20110
6592,19304
6593,18623
6594,18447
6595,18027
6596,17729
6597,17261
6598,17176
6599,16939
6600,16763
6601,16761
6602,16374
6603,16294
6604,16162
6605,16384
6606,16791
6607,16564
6608,16864
6609,17310
6610,17652
6611,18225
6612,18899
6613,19389
6614,19571
6615,20425
6616,21373
6617,21961
6618,23136
6619,24016
6620,25215
6621,25886
6622,26533
6623,27565
6624,29114
6625,30198
6626,31991
6627,35521
6628,36526
6629,38110
6630,39389
6631,40973
6632,41862
6633,42896
6634,43897
6635,44549
6636,45427
6637,46066
6638,46740
6639,47476
6640,48061
6641,48771
6642,49656
6643,49980
6644,50647
6645,51414
6646,51276
6647,51492
6648,51515
6649,51929
6650,52072
6651,52065
6652,51966
6653,51647
6654,51786
6655,51385
6656,51297
6657,711
6658,50430
6659,50250
6660,50097
6661,49450
6662,48591
6663,48385
6664,47841
6665,45827
6666,44982
6667,44160
6668,43433
6669,42609
6670,41671
6671,40690
6672,39855
6673,38589
6674,36976
6675,35812
6676,34643
6677,33516
6678,31220
6679,29989
6680,29179
6681,28253
6682,26641
6683,25603
6684,25004
6685,23925
6686,23306
6687,22608
6688,22172
6689,21606
6690,20970
6691,20572
6692,19638
6693,18760
6694,18190
6695,17753
6696,17456
6697,17180
6698,17212
6699,17125
6700,16688
6701,16564
6702,16378
6703,16110
6704,16227
6705,16220
6706,16472
6707,16619
6708,16989
6709,17214
6710,17530
6711,18168
6712,18796
6713,19225
6714,20931
6715,21697
6716,22489
6717,24002
6718,24539
6719,25625
6720,27615
6721,28516
6722,29644
6723,30649
6724,31608
6725,33171
6726,34353
6727,35311
6728,37346
6729,38989
6730,40319
6731,41291
6732,42035
6733,42903
6734,44293
6735,45018
6736,45711
6737,46788
6738,47395
6739,48673
6740,49337
6741,49761
6742,50581
6743,50764
6744,50949
6745,51170
6746,51126
6747,51486
6748,51383
6749,51711
6750,51800
6751,52192
6752,51876
6753,52029
6754,51749
6755,51469
6756,51596
6757,51279
6758,51339
6759,50766
6760,50739
6761,49794
6762,49132
6763,48819
6764,48227
6765,47756
6766,46572
6767,45957
6768,45464
6769,44846
6770,43465
6771,42134
6772,41147
6773,40208
6774,39718
6775,38867
6776,37260
6777,35825
6778,34148
6779,32414
6780,31320
6781,29751
6782,29041
6783,28093
6784,26991
6785,25651
6786,25024
6787,23837
6788,22812
6789,21848
6790,21189
6791,20535
6792,20054
6793,18439
6794,18071
6795,17722
6796,17407
6797,17004
6798,16720
6799,16510
6800,16296
6801,16264
6802,16451
6803,16301
6804,16343
6805,16701
6806,16649
6807,16795
6808,17142
6809,17411
6810,17709
6811,18121
6812,18467
6813,18906
6814,19393
6815,19869
6816,20673
6817,21404
6818,22479
6819,23029
6820,24292
6821,25103
6822,25941
6823,26950
6824,28037
6825,29072
6826,30317
6827,31978
6828,32962
6829,34738
6830,35896
6831,37442
6832,38426
6833,39459
6834,40264
6835,41018
6836,42609
6837,43100
6838,44041
6839,44600
6840,45550
6841,46061
6842,47245
6843,48061
6844,49071
6845,49438
6846,49751
6847,50210
6848,50355
6849,51127
6850,51314
6851,51246
6852,51573
6853,51929
6854,51936
6855,52082
6856,51793
6857,51782
6858,52126
6859,51745
6860,51798
6861,51291
6862,51020
6863,51266
6864,51147
6865,50243
6866,50132
6867,49605
6868,49335
6869,48937
6870,47861
6871,47390
6872,46501
6873,45806
6874,45143
6875,44209
6876,43020
6877,42143
6878,41845
6879,40176
6880,39385
6881,38307
6882,36386
6883,35354
6884,35042
6885,33653
6886,32550
6887,31192
6888,29617
6889,28465
6890,26923
6891,26347
6892,25148
6893,24543
6894,23712
6895,22785
6896,22068
6897,21147
6898,20125
6899,19592
6900,19024
6901,18566
6902,18505
6903,17920
6904,17302
6905,17070
6906,16900
6907,16717
6908,16612
6909,16328
6910,16409
6911,16224
6912,16681
6913,16720
6914,16588
6915,16923
6916,17202
6917,17471
6918,17866
6919,18366
6920,19118
6921,19731
6922,20145
6923,20738
6924,21735
6925,22325
6926,23377
6927,24438
6928,26178
6929,27518
6930,28297
6931,29754
6932,30696
6933,31127
6934,32549
6935,35058
6936,36025
6937,37150
6938,38467
6939,38611
6940,40015
6941,41576
6942,42394
6943,44252
6944,44993
6945,46531
6946,47326
6947,47940
6948,48425
6949,49000
6950,48912
6951,49974
6952,50197
6953,50874
6954,50923
6955,51296
6956,51435
6957,51480
6958,51867
6959,52021
6960,51853
6961,51948
6962,51743
6963,51464
6964,51741
6965,51435
6966,51022
6967,51247
6968,50622
6969,49952
6970,49796
6971,49463
6972,48825
6973,47811
6974,47654
6975,46510
6976,45531
6977,44909
6978,43991
6979,43508
6980,42893
6981,41226
6982,40416
6983,38631
6984,37025
6985,36350
6986,34086
6987,33219
6988,31657
6989,30204
6990,29720
6991,28500
6992,27172
6993,26475
6994,24323
6995,23625
6996,22860
6997,21945
6998,21448
6999,20473
7000,19792
7001,19384
7002,18705
7003,17965
7004,17728
7005,17293
7006,16551
7007,16594
7008,16512
7009,16280
7010,16026
7011,16293
7012,16564
7013,16313
7014,16693
7015,16889
7016,17406
7017,17558
7018,18222
7019,19753
7020,20296
7021,20620
7022,21386
7023,21932
7024,22812
7025,24283
7026,26479
7027,27540
7028,28585
7029,30236
7030,32014
7031,33121
7032,35542
7033,36404
7034,37813
7035,39503
7036,40484
7037,41631
7038,42932
7039,43144
7040,44705
7041,45325
7042,46097
7043,47379
7044,47664
7045,48264
7046,48867
7047,49661
7048,49979
7049,50617
7050,51026
7051,50657
7052,51168
7053,51319
7054,51462
7055,51669
7056,51862
7057,51969
7058,52204
7059,51733
7060,51700
7061,51743
7062,51362
7063,51126
7064,51229
7065,51000
7066,50072
7067,50200
7068,49609
7069,48904
7070,48321
7071,48009
7072,47413
7073,46653
7074,46066
7075,43996
7076,43123
7077,42125
7078,40799
7079,39932
7080,39010
7081,37583
7082,36647
7083,34699
7084,33895
7085,33032
7086,31785
7087,30684
7088,29858
7089,28564
7090,27644
7091,26237
7092,24092
7093,23302
7094,22586
7095,21576
7096,20588
7097,19803
7098,19265
7099,18585
7100,18210
7101,17677
7102,17547
7103,17045
7104,17027
7105,16780
7106,16454
7107,16292
7108,16201
7109,16414
7110,16737
7111,16826
7112,16965
7113,17263
7114,17662
7115,17954
7116,18554
7117,19034
7118,19691
7119,20668
7120,21206
7121,22770
7122,23505
7123,24695
7124,25607
7125,26611
7126,28068
7127,28719
7128,30176
7129,32004
7130,33003
7131,34150
7132,35379
7133,37202
7134,38264
7135,39643
7136,40869
7137,41985
7138,42904
7139,43695
7140,44525
7141,45633
7142,46306
7143,47143
7144,47812
7145,48216
7146,49411
7147,50190
7148,50228
7149,50414
7150,50659
7151,50804
7152,51104
7153,51422
7154,51759
7155,51786
7156,52068
7157,52379
7158,51714
7159,51740
7160,51740
7161,51174
7162,51131
7163,50796
7164,50382
7165,50569
7166,49749
7167,49019
7168,48367
7169,47483
7170,46207
7171,45739
7172,44892
7173,43694
7174,42786
7175,41798
7176,40896
7177,39856
7178,38752
7179,37884
7180,37015
7181,35913
7182,34850
7183,34534
7184,33148
7185,29744
7186,28657
7187,27611
7188,27059
7189,26081
7190,24899
7191,24130
7192,22490
7193,21910
7194,21286
7195,20221
7196,19622
7197,18804
7198,18311
7199,17486
7200,17453
7201,17144
7202,16747
7203,16394
7204,16679
7205,16434
7206,16613
7207,16586
7208,16518
7209,16470
7210,16642
7211,16826
7212,16962
7213,17227
7214,17472
7215,18154
7216,18508
7217,18934
7218,19466
7219,19949
7220,21071
7221,22314
7222,23518
7223,24398
7224,25157
7225,25980
7226,26184
7227,27371
7228,28588
7229,30139
7230,31200
7231,33026
7232,33828
7233,35475
7234,36714
7235,37673
7236,38782
7237,40483
7238,41940
7239,43263
7240,43989
7241,44954
7242,46072
7243,47043
7244,47615
7245,48672
7246,49478
7247,49888
7248,50426
7249,50958
7250,51026
7251,51357
7252,51709
7253,52245
7254,51853
7255,51790
7256,51971
7257,52069
7258,52061
7259,51922
7260,51395
7261,51412
7262,51087
7263,51041
7264,50498
7265,50371
7266,49918
7267,49412
7268,49129
7269,47922
7270,48010
7271,46808
7272,46264
7273,45458
7274,44253
7275,43422
7276,43246
7277,42184
7278,41469
7279,40392
7280,38615
7281,37647
7282,36839
7283,35309
7284,33605
7285,32521
7286,30986
7287,29564
7288,28659
7289,27462
7290,26557
7291,25784
7292,24393
7293,23548
7294,23503
7295,22486
7296,20486
7297,19862
7298,19389
7299,19186
7300,18547
7301,17998
7302,17563
7303,17092
7304,16823
7305,16985
7306,16512
7307,16429
7308,16460
7309,16108
7310,16421
7311,16092
7312,16646
7313,16714
7314,16945
7315,17253
7316,17789
7317,18383
7318,18590
7319,19663
7320,20735
7321,21361
7322,21946
7323,22778
7324,23629
7325,24313
7326,25350
7327,27029
7328,27833
7329,29415
7330,30123
7331,31266
7332,32377
7333,33667
7334,35453
7335,37343
7336,38153
7337,39782
7338,40989
7339,42141
7340,43347
7341,43732
7342,44668
7343,45811
7344,46433
7345,46942
7346,47463
7347,48044
7348,48828
7349,49276
7350,49759
7351,50002
7352,50992
7353,51152
7354,51354
7355,51833
7356,51507
7357,51603
7358,51703
7359,51727
7360,52086
7361,51764
7362,51661
7363,51379
7364,51811
7365,51374
7366,51070
7367,51051
7368,50833
7369,50242
7370,49582
7371,48538
7372,48061
7373,47618
7374,47211
7375,46431
7376,45596
7377,44654
7378,44024
7379,42656
7380,41764
7381,41406
7382,40305
7383,39435
7384,38249
7385,37080
7386,35818
7387,34680
7388,32637
7389,31626
7390,30694
7391,29731
7392,28673
7393,27522
7394,26110
7395,25346
7396,24816
7397,23644
7398,23161
7399,22220
7400,21284
7401,20557
7402,20178
7403,19673
7404,18684
7405,18139
7406,17748
7407,17523
7408,16984
7409,17036
7410,16872
7411,16623
7412,16518
7413,16518
7414,16235
7415,16228
7416,16627
7417,16444
7418,16649
7419,16798
7420,16942
7421,17119
7422,17447
7423,18159
7424,18346
7425,19220
7426,19400
7427,20013
7428,20506
7429,21131
7430,22068
7431,22698
7432,25202
7433,26129
7434,26897
7435,29014
7436,30192
7437,31320
7438,32261
7439,34410
7440,35389
7441,36642
7442,37877
7443,39007
7444,41016
7445,43487
7446,44205
7447,44983
7448,46109
7449,46866
7450,47841
7451,48809
7452,49467
7453,50209
7454,50667
7455,50907
7456,51200
7457,51620
7458,51933
7459,51740
7460,51950
7461,51878
7462,51852
7463,52132
7464,51577
7465,51328
7466,51141
7467,50943
7468,51058
7469,50400
7470,50190
7471,50364
7472,49654
7473,49463
7474,48615
7475,48207
7476,47048
7477,46766
7478,46015
7479,45059
7480,44360
7481,43487
7482,42762
7483,41842
7484,40938
7485,40225
7486,38672
7487,37608
7488,36580
7489,35665
7490,32867
7491,31804
7492,30747
7493,29604
7494,28126
7495,26513
7496,25722
7497,24632
7498,24092
7499,23257
7500,22489
7501,21872
7502,21188
7503,20557
7504,19958
7505,19301
7506,18661
7507,18118
7508,17893
7509,17515
7510,17121
7511,17098
7512,16806
7513,16617
7514,16285
7515,16300
7516,16368
7517,16233
7518,16591
7519,16651
7520,16832
7521,16960
7522,17577
7523,17935
7524,18101
7525,18513
7526,18837
7527,19780
7528,20136
7529,21208
7530,21972
7531,22767
7532,23573
7533,24349
7534,25179
7535,26513
7536,27900
7537,28749
7538,30968
7539,31885
7540,32735
7541,33616
7542,34853
7543,36677
7544,37799
7545,38901
7546,40014
7547,40932
7548,42343
7549,43288
7550,44477
7551,45928
7552,46357
7553,47155
7554,47550
7555,47900
7556,48554
7557,49114
7558,49758
7559,50041
7560,51437
7561,51221
7562,51309
7563,51653
7564,51978
7565,51832
7566,51690
7567,51919
7568,51619
7569,51910
7570,51489
7571,50968
7572,50910
7573,50890
7574,50612
7575,49747
7576,49255
7577,48951
7578,48410
7579,47861
7580,47581
7581,47079
7582,45916
7583,45150
7584,43841
7585,43249
7586,42274
7587,41379
7588,40353
7589,39250
7590,38062
7591,36757
7592,36247
7593,34184
7594,33094
7595,31891
7596,31009
7597,29766
7598,28126
7599,26998
7600,26147
7601,25429
7602,24100
7603,23403
7604,22499
7605,21896
7606,21172
7607,20503
7608,19470
7609,19000
7610,18261
7611,17758
7612,17620
7613,17352
7614,17402
7615,17033
7616,16888
7617,16779
7618,16394
7619,16381
7620,16171
7621,16403
7622,16431
7623,16396
7624,16670
7625,16664
7626,16903
7627,17088
7628,17538
7629,17969
7630,18836
7631,19383
7632,19990
7633,20839
7634,21666
7635,22734
7636,23588
7637,24012
7638,24695
7639,25623
7640,26022
7641,27041
7642,29070
7643,30609
7644,31888
7645,33096
7646,34280
7647,36051
7648,37084
7649,38622
7650,40869
7651,41798
7652,42852
7653,43762
7654,44864
7655,45658
7656,46611
7657,47141
7658,48566
7659,49028
7660,49501
7661,50032
7662,50365
7663,50894
7664,51225
7665,51380
7666,51661
7667,51666
7668,51833
7669,51930
7670,51833
7671,52057
7672,51809
7673,51251
7674,51128
7675,51254
7676,50200
7677,50083
7678,49487
7679,48818
7680,48196
7681,47384
7682,46846
7683,45525
7684,44831
7685,43369
7686,41788
7687,40772
7688,39740
7689,38879
7690,38272
7691,37125
7692,35290
7693,33548
7694,32793
7695,31412
7696,29853
7697,27673
7698,26834
7699,25800
7700,24394
7701,23936
7702,22836
7703,21857
7704,21046
7705,20246
7706,19932
7707,19471
7708,18607
7709,18081
7710,17681
7711,17327
7712,17182
7713,16666
7714,16705
7715,16287
7716,16317
7717,16485
7718,16052
7719,16498
7720,16565
7721,16742
7722,16908
7723,17367
7724,17396
7725,17861
7726,18189
7727,18903
7728,19468
7729,19533
7730,20199
7731,21345
7732,21881
7733,23515
7734,24331
7735,25180
7736,27161
7737,28497
7738,29786
7739,30782
7740,31992
7741,33582
7742,34789
7743,36282
7744,37779
7745,39013
7746,40054
7747,40945
7748,41993
7749,43111
7750,45063
7751,45794
7752,46339
7753,47702
7754,48014
7755,48793
7756,49183
7757,49964
7758,50077
7759,50644
7760,50910
7761,51535
7762,51207
7763,51743
7764,51644
7765,51773
7766,52026
7767,52082
7768,51873
7769,51935
7770,51497
7771,51682
7772,51433
7773,51040
7774,51104
7775,50318
7776,49409
7777,48783
7778,48431
7779,48206
7780,47409
7781,46578
7782,45972
7783,45233
7784,44630
7785,44049
7786,42592
7787,41885
7788,40727
7789,38790
7790,37671
7791,36671
7792,35045
7793,32944
7794,32102
7795,30448
7796,29711
7797,28590
7798,27662
7799,26630
7800,25290
7801,24047
7802,23391
7803,22705
7804,21837
7805,21211
7806,20651
7807,19603
7808,18912
7809,17850
7810,18056
7811,17362
7812,16951
7813,16943
7814,16860
7815,16715
7816,16454
7817,16086
7818,16532
7819,16147
7820,16697
7821,16657
7822,16687
7823,16779
7824,17069
7825,17166
7826,17533
7827,17711
7828,18071
7829,18839
7830,19457
7831,19970
7832,20651
7833,21598
7834,22399
7835,23790
7836,24740
7837,25605
7838,26839
7839,28125
7840,29175
7841,30255
7842,33042
7843,34229
7844,35455
7845,35789
7846,37203
7847,39414
7848,40566
7849,41960
7850,42714
7851,43774
7852,44906
7853,45838
7854,46954
7855,47844
7856,48768
7857,49182
7858,49813
7859,50451
7860,50551
7861,50983
7862,51086
7863,51352
7864,51634
7865,51999
7866,51948
7867,51928
7868,51951
7869,52432
7870,52093
7871,51924
7872,51674
7873,51498
7874,51157
7875,50904
7876,50411
7877,50060
7878,49771
7879,49141
7880,47955
7881,47751
7882,46962
7883,46032
7884,45257
7885,44328
7886,43548
7887,42807
7888,41290
7889,40661
7890,39219
7891,38255
7892,37056
7893,35988
7894,34417
7895,33105
7896,31981
7897,30164
7898,29103
7899,28104
7900,27084
7901,25761
7902,24849
7903,23835
7904,22861
7905,22258
7906,21544
7907,20860
7908,20348
7909,19917
7910,19340
7911,18921
7912,18542
7913,17898
7914,17604
7915,17190
7916,17127
7917,16687
7918,16448
7919,16500
7920,16535
7921,16192
7922,16180
7923,16308
7924,16383
7925,16531
7926,16713
7927,16883
7928,17282
7929,17397
7930,18036
7931,18437
7932,18777
7933,19818
7934,20204
7935,20937
7936,21174
7937,21877
7938,22289
7939,23121
7940,23842
7941,24552
7942,25560
7943,27067
7944,27935
7945,29115
7946,30130
7947,31553
7948,32980
7949,33479
7950,34863
7951,38321
7952,39311
7953,40410
7954,41424
7955,42322
7956,43088
7957,44026
7958,44824
7959,45654
7960,46360
7961,47239
7962,48148
7963,48988
7964,49361
7965,49926
7966,50727
7967,50671
7968,51144
7969,51300
7970,51469
7971,51568
7972,51641
7973,52049
7974,52356
7975,52036
7976,51842
7977,51897
7978,51993
7979,51720
7980,51174
7981,51056
7982,50659
7983,50016
7984,49173
7985,48995
7986,47746
7987,47033
7988,46271
7989,45672
7990,44398
7991,43586
7992,42796
7993,41802
7994,40883
7995,38780
7996,37778
7997,36679
7998,34821
7999,33789
8000,32038
8001,30897
8002,30528
8003,29261
8004,27819
8005,26776
8006,25352
8007,24455
8008,23053
8009,22243
8010,21524
8011,20527
8012,19614
8013,19221
8014,18715
8015,18195
8016,17647
8017,17516
8018,17340
8019,17127
8020,16887
8021,16424
8022,16516
8023,16061
8024,16111
8025,16312
8026,16395
8027,16548
8028,16664
8029,17203
8030,17524
8031,17889
8032,18355
8033,19413
8034,19919
8035,20862
8036,21370
8037,22235
8038,23455
8039,25003
8040,26049
8041,26993
8042,28521
8043,29476
8044,30635
8045,31177
8046,32414
8047,34148
8048,35268
8049,37037
8050,38829
8051,40261
8052,41300
8053,42268
8054,44105
8055,44945
8056,45649
8057,47233
8058,47666
8059,48300
8060,48923
8061,49290
8062,49815
8063,50445
8064,50764
8065,51068
8066,50964
8067,51528
8068,51850
8069,51645
8070,51879
8071,52289
8072,51794
8073,51605
8074,51866
8075,51450
8076,51531
8077,50924
8078,50653
8079,50217
8080,49589
8081,49073
8082,47834
8083,47194
8084,46580
8085,45976
8086,44951
8087,43572
8088,41755
8089,40804
8090,39810
8091,38816
8092,37277
8093,35908
8094,34296
8095,32822
8096,31226
8097,29197
8098,28107
8099,27227
8100,26219
8101,24810
8102,23976
8103,22995
8104,21846
8105,21201
8106,20878
8107,20271
8108,19150
8109,18762
8110,18148
8111,17783
8112,17658
8113,17320
8114,17009
8115,17068
8116,17056
8117,16407
8118,16320
8119,16292
8120,16265
8121,16292
8122,16548
8123,16759
8124,16716
8125,17070
8126,17468
8127,17625
8128,18027
8129,18547
8130,18797
8131,19451
8132,20230
8133,21331
8134,21946
8135,22703
8136,22969
8137,23821
8138,24965
8139,26087
8140,26963
8141,28998
8142,29832
8143,30697
8144,31645
8145,33040
8146,258
8147,34699
8148,35859
8149,36586
8150,37833
8151,39385
8152,40419
8153,40667
8154,41980
8155,42836
8156,43673
8157,44442
8158,45311
8159,46454
8160,47213
8161,47830
8162,48843
8163,49746
8164,50279
8165,50439
8166,50645
8167,50917
8168,51228
8169,51557
8170,51784
8171,51722
8172,51784
8173,52229
8174,51648
8175,51807
8176,51314
8177,50950
8178,50990
8179,50607
8180,49468
8181,48880
8182,48149
8183,47311
8184,47019
8185,46322
8186,45386
8187,44099
8188,43105
8189,42342
8190,41089
8191,40144
8192,39017
8193,37913
8194,36514
8195,34880
8196,34045
8197,32063
8198,30793
8199,29250
8200,28154
8201,27596
8202,26794
8203,25480
8204,24486
8205,23486
8206,22533
8207,22245
8208,21493
8209,20587
8210,19642
8211,19204
8212,18670
8213,18264
8214,17768
8215,17322
8216,17243
8217,16973
8218,16841
8219,16600
8220,16565
8221,16469
8222,16201
8223,16324
8224,16413
8225,16548
8226,16697
8227,17253
8228,17363
8229,17633
8230,17878
8231,18328
8232,19041
8233,19696
8234,20917
8235,21378
8236,22281
8237,22821
8238,23780
8239,24798
8240,25513
8241,26386
8242,26633
8243,27915
8244,29654
8245,30505
8246,31500
8247,32336
8248,34089
8249,35418
8250,37046
8251,38275
8252,39980
8253,40692
8254,41956
8255,42804
8256,43736
8257,44551
8258,45606
8259,46415
8260,47049
8261,47849
8262,48640
8263,49286
8264,49255
8265,50524
8266,50947
8267,51464
8268,51320
8269,51911
8270,52094
8271,52058
8272,51763
8273,51834
8274,51826
8275,51593
8276,51377
8277,51264
8278,50874
8279,49821
8280,49318
8281,48920
8282,48172
8283,47643
8284,47083
8285,46200
8286,45597
8287,44867
8288,44022
8289,42316
8290,41577
8291,40358
8292,38695
8293,37829
8294,37390
8295,34775
8296,33583
8297,32014
8298,31012
8299,29694
8300,28673
8301,26706
8302,25914
8303,24923
8304,24155
8305,22918
8306,22480
8307,21924
8308,21198
8309,19950
8310,19363
8311,18927
8312,17841
8313,17700
8314,17301
8315,16971
8316,17074
8317,17001
8318,16490
8319,16578
8320,16262
8321,16158
8322,16212
8323,16475
8324,16768
8325,16781
8326,16924
8327,17162
8328,17218
8329,17526
8330,17955
8331,18481
8332,19351
8333,19910
8334,20197
8335,20852
8336,21970
8337,22524
8338,23851
8339,25063
8340,25940
8341,27449
8342,28436
8343,29999
8344,31071
8345,32355
8346,33609
8347,34407
8348,35548
8349,36828
8350,38739
8351,39121
8352,39800
8353,40820
8354,42272
8355,42935
8356,44574
8357,45399
8358,46079
8359,46905
8360,47939
8361,48263
8362,48910
8363,49808
8364,50273
8365,50854
8366,50908
8367,51203
8368,51205
8369,51524
8370,51639
8371,51825
8372,52165
8373,51866
8374,51747
8375,51540
8376,51799
8377,51523
8378,51196
8379,50788
8380,50507
8381,49882
8382,49666
8383,48875
8384,47976
8385,47476
8386,46454
8387,45592
8388,44055
8389,43326
8390,42361
8391,40835
8392,40121
8393,39385
8394,38354
8395,36669
8396,35428
8397,33829
8398,32721
8399,30322
8400,28724
8401,27725
8402,26728
8403,25878
8404,25543
8405,24917
8406,24153
8407,23035
8408,22206
8409,21524
8410,20905
8411,20651
8412,19983
8413,19127
8414,18750
8415,17614
8416,17394
8417,17420
8418,16907
8419,16695
8420,16720
8421,16760
8422,16276
8423,16574
8424,16231
8425,16010
8426,16321
8427,16539
8428,16514
8429,16870
8430,16808
8431,17102
8432,17830
8433,18111
8434,18570
8435,19027
8436,19713
8437,20424
8438,20862
8439,21549
8440,22343
8441,23442
8442,23965
8443,25250
8444,26471
8445,27873
8446,28913
8447,29257
8448,30631
8449,32426
8450,34113
8451,35407
8452,36563
8453,37091
8454,38225
8455,39160
8456,40437
8457,41415
8458,42848
8459,43509
8460,44502
8461,45973
8462,46851
8463,47437
8464,48155
8465,49130
8466,49713
8467,50051
8468,50561
8469,50844
8470,51211
8471,51512
8472,51658
8473,51810
8474,51954
8475,51999
8476,52113
8477,51834
8478,51663
8479,51577
8480,51106
8481,50859
8482,50663
8483,50495
8484,49877
8485,49104
8486,48550
8487,47811
8488,47247
8489,46687
8490,45966
8491,44505
8492,43636
8493,42927
8494,42031
8495,40452
8496,38230
8497,37276
8498,36067
8499,35185
8500,33317
8501,32576
8502,30854
8503,30108
8504,28716
8505,27852
8506,26842
8507,25753
8508,25050
8509,24257
8510,22228
8511,21630
8512,20987
8513,20310
8514,19674
8515,19020
8516,18413
8517,18202
8518,17678
8519,17338
8520,17036
8521,16734
8522,16598
8523,16483
8524,16238
8525,16216
8526,16127
8527,16358
8528,16405
8529,16662
8530,16687
8531,17212
8532,17429
8533,17797
8534,18256
8535,18847
8536,19658
8537,20081
8538,20911
8539,21387
8540,22285
8541,23063
8542,23639
8543,24548
8544,26054
8545,26710
8546,27959
8547,28975
8548,30122
8549,31238
8550,32913
8551,34179
8552,34864
8553,36618
8554,37733
8555,38730
8556,39632
8557,40879
8558,41894
8559,43060
8560,44168
8561,44856
8562,46218
8563,46647
8564,47443
8565,48021
8566,48817
8567,49237
8568,50121
8569,50443
8570,50880
8571,51060
8572,51492
8573,51255
8574,51583
8575,51478
8576,51831
8577,51971
8578,52001
8579,51919
8580,51718
8581,51470
8582,51865
8583,51226
8584,50960
8585,50910
8586,50482
8587,49387
8588,49004
8589,48156
8590,47413
8591,46026
8592,45253
8593,44015
8594,43357
8595,42331
8596,41596
8597,40331
8598,39220
8599,38223
8600,37183
8601,35675
8602,33736
8603,32745
8604,30402
8605,28348
8606,26879
8607,25401
8608,24573
8609,24330
8610,23526
8611,22602
8612,21679
8613,20877
8614,19642
8615,19322
8616,18717
8617,18206
8618,17875
8619,17022
8620,17067
8621,16773
8622,16573
8623,16741
8624,16425
8625,16214
8626,16478
8627,16447
8628,16748
8629,16785
8630,16752
8631,16982
8632,17379
8633,17413
8634,17647
8635,18325
8636,18402
8637,18760
8638,20435
8639,20939
8640,21579
8641,22293
8642,23141
8643,24243
8644,24985
8645,25309
8646,26463
8647,28051
8648,28982
8649,29228
8650,30510
8651,31655
8652,32324
8653,33416
8654,35477
8655,36400
8656,38320
8657,39141
8658,40385
8659,41382
8660,42352
8661,43284
8662,44556
8663,45407
8664,45955
8665,47270
8666,47816
8667,48274
8668,48661
8669,49436
8670,49906
8671,49930
8672,50914
8673,51351
8674,51445
8675,51428
8676,51590
8677,52147
8678,51833
8679,51975
8680,51985
8681,51676
8682,51738
8683,51424
8684,51500
8685,51163
8686,50661
8687,50348
8688,50162
8689,49619
8690,48994
8691,48365
8692,47710
8693,46957
8694,46099
8695,45162
8696,43658
8697,43028
8698,42038
8699,40416
8700,39623
8701,37920
8702,34808
8703,33975
8704,33227
8705,32082
8706,30553
8707,28746
8708,27704
8709,25717
8710,25117
8711,24093
8712,22897
8713,21544
8714,20882
8715,20230
8716,19417
8717,18442
8718,18262
8719,17723
8720,17466
8721,16754
8722,16675
8723,16710
8724,16305
8725,16243
8726,16206
8727,16523
8728,16007
8729,16541
8730,16610
8731,16516
8732,16908
8733,17259
8734,17530
8735,17885
8736,18163
8737,18358
8738,19018
8739,19672
8740,20194
8741,20652
8742,21988
8743,22514
8744,23393
8745,23616
8746,24595
8747,25938
8748,26896
8749,28416
8750,30082
8751,31127
8752,33601
8753,34796
8754,35998
8755,37406
8756,38769
8757,40357
8758,41306
8759,41659
8760,42818
8761,43687
8762,44571
8763,45270
8764,46074
8765,46928
8766,47755
8767,48068
8768,48974
8769,49623
8770,49989
8771,50240
8772,50762
8773,50900
8774,51112
8775,51272
8776,51853
8777,51738
8778,51835
8779,51881
8780,52054
8781,51751
8782,51887
8783,51847
8784,51239
8785,50993
8786,51170
8787,51187
8788,50342
8789,50368
8790,49146
8791,48438
8792,47958
8793,47040
8794,46457
8795,45619
8796,44762
8797,44455
8798,43606
8799,42258
8800,41511
8801,40018
8802,38295
8803,37589
8804,36515
8805,35407
8806,34186
8807,32511
8808,31596
8809,30836
8810,29956
8811,28848
8812,27670
8813,26643
8814,25824
8815,23726
8816,23064
8817,22438
8818,21941
8819,21019
8820,20537
8821,19634
8822,19075
8823,18496
8824,18009
8825,17694
8826,17347
8827,17058
8828,16916
8829,16675
8830,16633
8831,16337
8832,16396
8833,16233
8834,16375
8835,16378
8836,16902
8837,16714
8838,17205
8839,17315
8840,17781
8841,17788
8842,18479
8843,18862
8844,19944
8845,20629
8846,21690
8847,23493
8848,24099
8849,25032
8850,26334
8851,27256
8852,29098
8853,32531
8854,33311
8855,34473
8856,35973
8857,36962
8858,38305
8859,39316
8860,40884
8861,42450
8862,43667
8863,44413
8864,45239
8865,46479
8866,46635
8867,47323
8868,47937
8869,48950
8870,49363
8871,49989
8872,50267
8873,50292
8874,50688
8875,50933
8876,51200
8877,51378
8878,51479
8879,51829
8880,51796
8881,52121
8882,52112
8883,51882
8884,51935
8885,51693
8886,51350
8887,50961
8888,50963
8889,50448
8890,50037
8891,49689
8892,49128
8893,48530
8894,48319
8895,47461
8896,46667
8897,46179
8898,45391
8899,44728
8900,44074
8901,43315
8902,42694
8903,41379
8904,39759
8905,38716
8906,37601
8907,36616
8908,34960
8909,33146
8910,31409
8911,30600
8912,29477
8913,27689
8914,26337
8915,25489
8916,24693
8917,23823
8918,22558
8919,21896
8920,21184
8921,20540
8922,19393
8923,18917
8924,18495
8925,18062
8926,17434
8927,17082
8928,16773
8929,17119
8930,16762
8931,16331
8932,16563
8933,16248
8934,16524
8935,16594
8936,16857
8937,17129
8938,17273
8939,17816
8940,18242
8941,18922
8942,19241
8943,20021
8944,20710
8945,20887
8946,21660
8947,22694
8948,23970
8949,24731
8950,25815
8951,27017
8952,28337
8953,29675
8954,31249
8955,33073
8956,34336
8957,36112
8958,37152
8959,38866
8960,39914
8961,40512
8962,41419
8963,42945
8964,43724
8965,44247
8966,45085
8967,45697
8968,46653
8969,47209
8970,47673
8971,48346
8972,49166
8973,49915
8974,50453
8975,50925
8976,51391
8977,51617
8978,51693
8979,51800
8980,51947
8981,51902
8982,52088
8983,51844
8984,52174
8985,51709
8986,51301
8987,50712
8988,50581
8989,50456
8990,50016
8991,49679
8992,48894
8993,47760
8994,47433
8995,46571
8996,45509
8997,44833
8998,43710
8999,43171
9000,42182
9001,40740
9002,39908
9003,38680
9004,37112
9005,35700
9006,34234
9007,31432
9008,30480
9009,29085
9010,28111
9011,27223
9012,25954
9013,24870
9014,23815
9015,22591
9016,21963
9017,20433
9018,19992
9019,19412
9020,18777
9021,18102
9022,17579
9023,17368
9024,17109
9025,16750
9026,16757
9027,16853
9028,16324
9029,16661
9030,16357
9031,16371
9032,16418
9033,16622
9034,16900
9035,17196
9036,17177
9037,17832
9038,18400
9039,18613
9040,19411
9041,19550
9042,20254
9043,21605
9044,22351
9045,23207
9046,24332
9047,24907
9048,26263
9049,27312
9050,28324
9051,29357
9052,30391
9053,31955
9054,34296
9055,35216
9056,37086
9057,38947
9058,39941
9059,40754
9060,41429
9061,42407
9062,44570
9063,45378
9064,45936
9065,46303
9066,47317
9067,47790
9068,48158
9069,49040
9070,49627
9071,50092
9072,50257
9073,50583
9074,51018
9075,51296
9076,51518
9077,51555
9078,51787
9079,51565
9080,51833
9081,52101
9082,52122
9083,52245
9084,51575
9085,51653
9086,51386
9087,51198
9088,51225
9089,50762
9090,50490
9091,49737
9092,49068
9093,48753
9094,48335
9095,47712
9096,46962
9097,45826
9098,45395
9099,44405
9100,43978
9101,43054
9102,41971
9103,40755
9104,39345
9105,37545
9106,36431
9107,36077
9108,34641
9109,33671
9110,32154
9111,30731
9112,30247
9113,29018
9114,27497
9115,26809
9116,26182
9117,25236
9118,24515
9119,24062
9120,23263
9121,22362
9122,21926
9123,20791
9124,20258
9125,19581
9126,19084
9127,18304
9128,18026
9129,17503
9130,16832
9131,16734
9132,16315
9133,16494
9134,16479
9135,16089
9136,16415
9137,16572
9138,16608
9139,16813
9140,16990
9141,17320
9142,18155
9143,18482
9144,19108
9145,19896
9146,20586
9147,20916
9148,21990
9149,22806
9150,23786
9151,24711
9152,25419
9153,26993
9154,27801
9155,28942
9156,29758
9157,31109
9158,32598
9159,33881
9160,35168
9161,36065
9162,37814
9163,38646
9164,39406
9165,40174
9166,41133
9167,42395
9168,42690
9169,43686
9170,46160
9171,46902
9172,47368
9173,47760
9174,48270
9175,48672
9176,49177
9177,49543
9178,49989
9179,50802
9180,50991
9181,51177
9182,51349
9183,51417
9184,51675
9185,51774
9186,51926
9187,51861
9188,51923
9189,51781
9190,51697
9191,51337
9192,51257
9193,51360
9194,51032
9195,50615
9196,50168
9197,49769
9198,48960
9199,48009
9200,47072
9201,46661
9202,45966
9203,45573
9204,44747
9205,43455
9206,42715
9207,42251
9208,41299
9209,40314
9210,39770
9211,38726
9212,37972
9213,36461
9214,35472
9215,33595
9216,32681
9217,31345
9218,29737
9219,28635
9220,27022
9221,26063
9222,25740
9223,24416
9224,23864
9225,22923
9226,22009
9227,21338
9228,20675
9229,19918
9230,19238
9231,18797
9232,18050
9233,17765
9234,17213
9235,17266
9236,17083
9237,16744
9238,16638
9239,16618
9240,16200
9241,16236
9242,16451
9243,16427
9244,16778
9245,17075
9246,17533
9247,17849
9248,18488
9249,18924
9250,19445
9251,20209
9252,21076
9253,21883
9254,23061
9255,23666
9256,25159
9257,26026
9258,26319
9259,27401
9260,29075
9261,30212
9262,31858
9263,32727
9264,34385
9265,35473
9266,36645
9267,39373
9268,40473
9269,42463
9270,43280
9271,44133
9272,44892
9273,45845
9274,46535
9275,47085
9276,48043
9277,49083
9278,49591
9279,50146
9280,49911
9281,50728
9282,51069
9283,51026
9284,51297
9285,51527
9286,52054
9287,51969
9288,52129
9289,52019
9290,51668
9291,51735
9292,51446
9293,51233
9294,51018
9295,50417
9296,50488
9297,49788
9298,49263
9299,48774
9300,48328
9301,47272
9302,46360
9303,45242
9304,44335
9305,43193
9306,42430
9307,41293
9308,39763
9309,38731
9310,37594
9311,36838
9312,35367
9313,34650
9314,33769
9315,32010
9316,30706
9317,29080
9318,27624
9319,26665
9320,25304
9321,24464
9322,23273
9323,22671
9324,21458
9325,20779
9326,20216
9327,19677
9328,19290
9329,18633
9330,17791
9331,17471
9332,17315
9333,16906
9334,16753
9335,16693
9336,16632
9337,16362
9338,16220
9339,16245
9340,16429
9341,16617
9342,16900
9343,16667
9344,17221
9345,17175
9346,17444
9347,17950
9348,18255
9349,19013
9350,19994
9351,20922
9352,21758
9353,22346
9354,23641
9355,24185
9356,25400
9357,27062
9358,27815
9359,29524
9360,30704
9361,31339
9362,32396
9363,34296
9364,35442
9365,37209
9366,38377
9367,38679
9368,40015
9369,40906
9370,41952
9371,42906
9372,43741
9373,44479
9374,44853
9375,46058
9376,46856
9377,47643
9378,48227
9379,48848
9380,48847
9381,49868
9382,50542
9383,50748
9384,51341
9385,51091
9386,51459
9387,51749
9388,51801
9389,51810
9390,52181
9391,51802
9392,51556
9393,51682
9394,51647
9395,51251
9396,51273
9397,51251
9398,50511
9399,49950
9400,49629
9401,49083
9402,48202
9403,47834
9404,47200
9405,46645
9406,46026
9407,44352
9408,43715
9409,42576
9410,40677
9411,39725
9412,38804
9413,37676
9414,35865
9415,34978
9416,34194
9417,32942
9418,32070
9419,30244
9420,29892
9421,28517
9422,26577
9423,25844
9424,25230
9425,24508
9426,23664
9427,22857
9428,21939
9429,21172
9430,20635
9431,19528
9432,19048
9433,18640
9434,18293
9435,17635
9436,17743
9437,17095
9438,16722
9439,16378
9440,16424
9441,16391
9442,16173
9443,16346
9444,16361
9445,16375
9446,16595
9447,16587
9448,16889
9449,17068
9450,17550
9451,17601
9452,17903
9453,18470
9454,18843
9455,19535
9456,19962
9457,20584
9458,21133
9459,22462
9460,23008
9461,23895
9462,25179
9463,26138
9464,27532
9465,28468
9466,30806
9467,31728
9468,32893
9469,35526
9470,36724
9471,37918
9472,39118
9473,41050
9474,41699
9475,42931
9476,43271
9477,44116
9478,44369
9479,45389
9480,46073
9481,46764
9482,47306
9483,48152
9484,48724
9485,49279
9486,50184
9487,50613
9488,51060
9489,51441
9490,51431
9491,51550
9492,51905
9493,51967
9494,51757
9495,52092
9496,51670
9497,51552
9498,51468
9499,51203
9500,50956
9501,51106
9502,50838
9503,50007
9504,49552
9505,48782
9506,48528
9507,47352
9508,46726
9509,46297
9510,45558
9511,45304
9512,43962
9513,43056
9514,41723
9515,40233
9516,39265
9517,38113
9518,36424
9519,35418
9520,33885
9521,31699
9522,30871
9523,30237
9524,29064
9525,28117
9526,26802
9527,25793
9528,25439
9529,24933
9530,23675
9531,22871
9532,22149
9533,21495
9534,20848
9535,20657
9536,19917
9537,18785
9538,18226
9539,17719
9540,17333
9541,17407
9542,17071
9543,17125
9544,16779
9545,16345
9546,16407
9547,16260
9548,16082
9549,15983
9550,16593
9551,16473
9552,16712
9553,17242
9554,17347
9555,17980
9556,18304
9557,18858
9558,19526
9559,19981
9560,20550
9561,20996
9562,21623
9563,22295
9564,22892
9565,24272
9566,24938
9567,25631
9568,26228
9569,27745
9570,30234
9571,31412
9572,33126
9573,33883
9574,35429
9575,36992
9576,38162
9577,39301
9578,39979
9579,40856
9580,42895
9581,43552
9582,44546
9583,45153
9584,46031
9585,46873
9586,47381
9587,48288
9588,48850
9589,49774
9590,50122
9591,50194
9592,50642
9593,51186
9594,51324
9595,51445
9596,51721
9597,52064
9598,51717
9599,51799
9600,52023
9601,51859
9602,51785
9603,51956
9604,51531
9605,51251
9606,50922
9607,50777
9608,50807
9609,49886
9610,49293
9611,49170
9612,48417
9613,46770
9614,46230
9615,45429
9616,44855
9617,44085
9618,42601
9619,41953
9620,40745
9621,39704
9622,37008
9623,35873
9624,34599
9625,34319
9626,33524
9627,32694
9628,31618
9629,30412
9630,28011
9631,26999
9632,26159
9633,24356
9634,23638
9635,23106
9636,22579
9637,21137
9638,20594
9639,19953
9640,19297
9641,18891
9642,18239
9643,18057
9644,17959
9645,17508
9646,17177
9647,16655
9648,16712
9649,16520
9650,16490
9651,16195
9652,16259
9653,16482
9654,16683
9655,16557
9656,16740
9657,17020
9658,17133
9659,17410
9660,17892
9661,18344
9662,18808
9663,19872
9664,20282
9665,20548
9666,21326
9667,22239
9668,22606
9669,23397
9670,24522
9671,26064
9672,26865
9673,28092
9674,29172
9675,30221
9676,31320
9677,32807
9678,36112
9679,36957
9680,38413
9681,39549
9682,40473
9683,41688
9684,42939
9685,44093
9686,45350
9687,45943
9688,47680
9689,48046
9690,48975
9691,49363
9692,49948
9693,50709
9694,50978
9695,51070
9696,51471
9697,51522
9698,51628
9699,51964
9700,52012
9701,52180
9702,51986
9703,51651
9704,51613
9705,51293
9706,51357
9707,51061
9708,50488
9709,49958
9710,49388
9711,48751
9712,48177
9713,47957
9714,47243
9715,46103
9716,45631
9717,44681
9718,43980
9719,43068
9720,42104
9721,40146
9722,39243
9723,37464
9724,36688
9725,35545
9726,33809
9727,32366
9728,30727
9729,29492
9730,27984
9731,27402
9732,26106
9733,25410
9734,24381
9735,23656
9736,23398
9737,22520
9738,21464
9739,20478
9740,19909
9741,18685
9742,18340
9743,17765
9744,17779
9745,17029
9746,16841
9747,16676
9748,16445
9749,16318
9750,16217
9751,16277
9752,16286
9753,16554
9754,16593
9755,16656
9756,17018
9757,17194
9758,17330
9759,17671
9760,18007
9761,18536
9762,18772
9763,19814
9764,20441
9765,21389
9766,22850
9767,23546
9768,27073
9769,28000
9770,29058
9771,30780
9772,32180
9773,33769
9774,36085
9775,37043
9776,38485
9777,39308
9778,40335
9779,41468
9780,42410
9781,43276
9782,44492
9783,45788
9784,46254
9785,47041
9786,47330
9787,48345
9788,48846
9789,49586
9790,50103
9791,50844
9792,51082
9793,50970
9794,51309
9795,51482
9796,51509
9797,51705
9798,52190
9799,51861
9800,51839
9801,52011
9802,51733
9803,51499
9804,51143
9805,50929
9806,50721
9807,50194
9808,49284
9809,49110
9810,48261
9811,47602
9812,46916
9813,45984
9814,44657
9815,44105
9816,43000
9817,42100
9818,41236
9819,40221
9820,39243
9821,38040
9822,36979
9823,35907
9824,34112
9825,33302
9826,31720
9827,31631
9828,30685
9829,29659
9830,28680
9831,27518
9832,26296
9833,24849
9834,24221
9835,23341
9836,22806
9837,22269
9838,21625
9839,20865
9840,20271
9841,19917
9842,19261
9843,18098
9844,17705
9845,17324
9846,17329
9847,17099
9848,16774
9849,16496
9850,16770
9851,16251
9852,16191
9853,16187
9854,16316
9855,16636
9856,16659
9857,16909
9858,17115
9859,17147
9860,17496
9861,18286
9862,18916
9863,19639
9864,19991
9865,20488
9866,21408
9867,21953
9868,23161
9869,23891
9870,24687
9871,26595
9872,27445
9873,28401
9874,29565
9875,29914
9876,31484
9877,32411
9878,33704
9879,34922
9880,36022
9881,37237
9882,37883
9883,38657
9884,39676
9885,41542
9886,42326
9887,42919
9888,43737
9889,44680
9890,45197
9891,46497
9892,47081
9893,48041
9894,48838
9895,49164
9896,49920
9897,50300
9898,50524
9899,50998
9900,50865
9901,51209
9902,51579
9903,51572
9904,51592
9905,51795
9906,51767
9907,52060
9908,51797
9909,51496
9910,51459
9911,51592
9912,51110
9913,51058
9914,50578
9915,50185
9916,49613
9917,47952
9918,47370
9919,46801
9920,45632
9921,44309
9922,42669
9923,41787
9924,40992
9925,39771
9926,39237
9927,38159
9928,37104
9929,35399
9930,33491
9931,32739
9932,31530
9933,30177
9934,29018
9935,28052
9936,27046
9937,26318
9938,25314
9939,24511
9940,23234
9941,22622
9942,22161
9943,21673
9944,20756
9945,20304
9946,19661
9947,19166
9948,18637
9949,17899
9950,17513
9951,17141
9952,17220
9953,16921
9954,16922
9955,16588
9956,16450
9957,16272
9958,15996
9959,16145
9960,16506
9961,16398
9962,16367
9963,16620
9964,16649
9965,17089
9966,17312
9967,17789
9968,18420
9969,18698
9970,19579
9971,20295
9972,20776
9973,21956
9974,22160
9975,22712
9976,23903
9977,24794
9978,25554
9979,26495
9980,28040
9981,28822
9982,30182
9983,31269
9984,32387
9985,34437
9986,35417
9987,36500
9988,38020
9989,38866
9990,39950
9991,40959
9992,43318
9993,43932
9994,45043
9995,45768
9996,46535
9997,47463
9998,48303
9999,48697
10000,49809
10001,49882
10002,50747
10003,51157
10004,51227
10005,51487
10006,51451
10007,51724
10008,52012
10009,52072
10010,52076
10011,51304
10012,51683
10013,51413
10014,51097
10015,51250
10016,50211
10017,49943
10018,49487
10019,48317
10020,46469
10021,45904
10022,45301
10023,44119
10024,43158
10025,42381
10026,41284
10027,40277
10028,38799
10029,37741
10030,36577
10031,35483
10032,33072
10033,32013
10034,30309
10035,29155
10036,27189
10037,26538
10038,25354
10039,24057
10040,23415
10041,23206
10042,22261
10043,20233
10044,19661
10045,19050
10046,18747
10047,18372
10048,17465
10049,17128
10050,16926
10051,16819
10052,16576
10053,16407
10054,16026
10055,16351
10056,16401
10057,16330
10058,16764
10059,16612
10060,16831
10061,17541
10062,17748
10063,17978
10064,18600
10065,18958
10066,19893
10067,20286
10068,20786
10069,21218
10070,21760
10071,22714
10072,23498
10073,24089
10074,25565
10075,27473
10076,28488
10077,29273
10078,31026
10079,32433
10080,32843
10081,36118
10082,36838
10083,38953
10084,40986
10085,41861
10086,42666
10087,43739
10088,45053
10089,45665
10090,46288
10091,47146
10092,47886
10093,48170
10094,48779
10095,49361
10096,50145
10097,50719
10098,50874
10099,50856
10100,51731
10101,51658
10102,51501
10103,52068
10104,51945
10105,51634
10106,51672
10107,51552
10108,51317
10109,51272
10110,51152
10111,50496
10112,49876
10113,49512
10114,49035
10115,48470
10116,47941
10117,47115
10118,46610
10119,45979
10120,44987
10121,43904
10122,43047
10123,41866
10124,40974
10125,39684
10126,38668
10127,38404
10128,37437
10129,35817
10130,34753
10131,33524
10132,31107
10133,30319
10134,29133
10135,28244
10136,27137
10137,25085
10138,24557
10139,23661
10140,22677
10141,22132
10142,21480
10143,20815
10144,20305
10145,20083
10146,18924
10147,18659
10148,18174
10149,17691
10150,17681
10151,17375
10152,17414
10153,16858
10154,16509
10155,16537
10156,16357
10157,16067
10158,16122
10159,16255
10160,16704
10161,16924
10162,17206
10163,17060
10164,17623
10165,18081
10166,18530
10167,19143
10168,19383
10169,19995
10170,20541
10171,21796
10172,22365
10173,23073
10174,23860
10175,24612
10176,25690
10177,26508
10178,27295
10179,29056
10180,30955
10181,31955
10182,33665
10183,34936
10184,36506
10185,38272
10186,40502
10187,41601
10188,42545
10189,43331
10190,44034
10191,44427
10192,45413
10193,46937
10194,47820
10195,48400
10196,49053
10197,49408
10198,50189
10199,50499
10200,51130
10201,51499
10202,51400
10203,51757
10204,52119
10205,51936
10206,52003
10207,51433
10208,51396
10209,51135
10210,51329
10211,50669
10212,50523
10213,49816
10214,49626
10215,48946
10216,48788
10217,47879
10218,47112
10219,46239
10220,45652
10221,44906
10222,43336
10223,42109
10224,41227
10225,560
10226,38582
10227,37465
10228,36519
10229,258
10230,35032
10231,33543
10232,31212
10233,30430
10234,29196
10235,28515
10236,27680
10237,27067
10238,26007
10239,25331
10240,23530
10241,22915
10242,22324
10243,21857
10244,21136
10245,20593
10246,19990
10247,19381
10248,18817
10249,18359
10250,17787
10251,17287
10252,17215
10253,17217
10254,17083
10255,16892
10256,16689
10257,16337
10258,16230
10259,16183
10260,16485
10261,16230
10262,16842
10263,16992
10264,16719
10265,16664
10266,17147
10267,17172
10268,17670
10269,18326
10270,18752
10271,19511
10272,20102
10273,20768
10274,21599
10275,22752
10276,24009
10277,24630
10278,25583
10279,26776
10280,29113
10281,30289
10282,31309
10283,33219
10284,34175
10285,36645
10286,37851
10287,38842
10288,39999
10289,41510
10290,42962
10291,43573
10292,44251
10293,45001
10294,45738
10295,45956
10296,46847
10297,47658
10298,48571
10299,49316
10300,49652
10301,50155
10302,50964
10303,50993
10304,51333
10305,51313
10306,51889
10307,52067
10308,52090
10309,52010
10310,51829
10311,51705
10312,51872
10313,51490
10314,50897
10315,50535
10316,50132
10317,49678
10318,48341
10319,48076
10320,47359
10321,46736
10322,45723
10323,44713
10324,44083
10325,43238
10326,42173
10327,40630
10328,39816
10329,38522
10330,37849
10331,35882
10332,34669
10333,33571
10334,32550
10335,30619
10336,29101
10337,28359
10338,27066
10339,26343
10340,25187
10341,24621
10342,23719
10343,23091
10344,21798
10345,21244
10346,20745
10347,20266
10348,19360
10349,18951
10350,18083
10351,17236
10352,17036
10353,16737
10354,16690
10355,16649
10356,16451
10357,16183
10358,16362
10359,16518
10360,16622
10361,16806
10362,16769
10363,16890
10364,16984
10365,17583
10366,17654
10367,17981
10368,19900
10369,20279
10370,21193
10371,21980
10372,22645
10373,23867
10374,25604
10375,26296
10376,27500
10377,28989
10378,30209
10379,31040
10380,31821
10381,32898
10382,33693
10383,35487
10384,36663
10385,37891
10386,38087
10387,39556
10388,40360
10389,40951
10390,41891
10391,43261
10392,44720
10393,45292
10394,46147
10395,46959
10396,47595
10397,48096
10398,48571
10399,49612
10400,50419
10401,50965
10402,51249
10403,51206
10404,51495
10405,51567
10406,51818
10407,51806
10408,51908
10409,51754
10410,51753
10411,51516
10412,51630
10413,51404
10414,51006
10415,50767
10416,51092
10417,50313
10418,50119
10419,49670
10420,49068
10421,48564
10422,48024
10423,46855
10424,46193
10425,44795
10426,43619
10427,42600
10428,41750
10429,40788
10430,39519
10431,38246
10432,37899
10433,35933
10434,35216
10435,34310
10436,33261
10437,31911
10438,30736
10439,30383
10440,29135
10441,27914
10442,25989
10443,25456
10444,24474
10445,24225
10446,23441
10447,22618
10448,22027
10449,21536
10450,20261
10451,19849
10452,19053
10453,18365
10454,17915
10455,17343
10456,17119
10457,16688
10458,16831
10459,16487
10460,16202
10461,16270
10462,15986
10463,16146
10464,16227
10465,16350
10466,16504
10467,16684
10468,17235
10469,17317
10470,17516
10471,18262
10472,18981
10473,19878
10474,20503
10475,21096
10476,22390
10477,22933
10478,23885
10479,24533
10480,25047
10481,26133
10482,27499
10483,28471
10484,29664
10485,31747
10486,33024
10487,34203
10488,35361
10489,37973
10490,38817
10491,39915
10492,41413
10493,42410
10494,42902
10495,43695
10496,44893
10497,46268
10498,46942
10499,47393
10500,48417
10501,49320
10502,49885
10503,50362
10504,50855
10505,50874
10506,51383
10507,51491
10508,51752
10509,51798
10510,51819
10511,52052
10512,52145
10513,51860
10514,51758
10515,51984
10516,51404
10517,51399
10518,51234
10519,51004
10520,50697
10521,50170
10522,49674
10523,49351
10524,48816
10525,48248
10526,46969
10527,46568
10528,45294
10529,44436
10530,43498
10531,42664
10532,41383
10533,40452
10534,39809
10535,38864
10536,35473
10537,34406
10538,33084
10539,32757
10540,31302
10541,30422
10542,29341
10543,28365
10544,27201
10545,25870
10546,25170
10547,23296
10548,22559
10549,21551
10550,20528
10551,19783
10552,19063
10553,18556
10554,18496
10555,17812
10556,17399
10557,17288
10558,17116
10559,16951
10560,16769
10561,16352
10562,16509
10563,16377
10564,16381
10565,16261
10566,16208
10567,16462
10568,16680
10569,16817
10570,16593
10571,17022
10572,17086
10573,17428
10574,17846
10575,18737
10576,19170
10577,19711
10578,20185
10579,21398
10580,21911
10581,22284
10582,23189
10583,23753
10584,25170
10585,26047
10586,27374
10587,29055
10588,30295
10589,32437
10590,33543
10591,34792
10592,37064
10593,38853
10594,39975
10595,41036
10596,41952
10597,43257
10598,43967
10599,44563
10600,45474
10601,45991
10602,47115
10603,47450
10604,48438
10605,48908
10606,49325
10607,50061
10608,50618
10609,51034
10610,51566
10611,51790
10612,51904
10613,51690
10614,51980
10615,51916
10616,52013
10617,51711
10618,51578
10619,51305
10620,51060
10621,50571
10622,50488
10623,50577
10624,49768
10625,49041
10626,48981
10627,47493
10628,47026
10629,46352
10630,45165
10631,44520
10632,43138
10633,42448
10634,41289
10635,40227
10636,39312
10637,38323
10638,36779
10639,35474
10640,33737
10641,32856
10642,32066
10643,30764
10644,28687
10645,27668
10646,26793
10647,26068
10648,24526
10649,23329
10650,22659
10651,22266
10652,21619
10653,20309
10654,19565
10655,18789
10656,18391
10657,17424
10658,17281
10659,16931
10660,17042
10661,16535
10662,16438
10663,16275
10664,16165
10665,16447
10666,16676
10667,16709
10668,16815
10669,16849
10670,17412
10671,17406
10672,17873
10673,18503
10674,19407
10675,20115
10676,20645
10677,21237
10678,22714
10679,23492
10680,24311
10681,24723
10682,25313
10683,26804
10684,28135
10685,30213
10686,31039
10687,32540
10688,34887
10689,35960
10690,37114
10691,38314
10692,40587
10693,41223
10694,42368
10695,43564
10696,44655
10697,45563
10698,46382
10699,47979
10700,48667
10701,49167
10702,49451
10703,50289
10704,50833
10705,51058
10706,51661
10707,51763
10708,51783
10709,51716
10710,52070
10711,51825
10712,52100
10713,51679
10714,51246
10715,51335
10716,50934
10717,50738
10718,50332
10719,49653
10720,49426
10721,48596
10722,47618
10723,46606
10724,45805
10725,44897
10726,43470
10727,42854
10728,41668
10729,40694
10730,39692
10731,38716
10732,37736
10733,36955
10734,35952
10735,32527
10736,31156
10737,30169
10738,29965
10739,28488
10740,26568
10741,25637
10742,24392
10743,23776
10744,23259
10745,22528
10746,21851
10747,21093
10748,20355
10749,19605
10750,19481
10751,18603
10752,18342
10753,18093
10754,17829
10755,17533
10756,16770
10757,16884
10758,16847
10759,16298
10760,16352
10761,16177
10762,16311
10763,16605
10764,16429
10765,16943
10766,16876
10767,17071
10768,17686
10769,17794
10770,18113
10771,18642
10772,19120
10773,19643
10774,19971
10775,20278
10776,20963
10777,22205
10778,22701
10779,23855
10780,24590
10781,25488
10782,26139
10783,27584
10784,28406
10785,30199
10786,31276
10787,31876
10788,32860
10789,34176
10790,36117
10791,37870
10792,38802
10793,40548
10794,41362
10795,42378
10796,44064
10797,44855
10798,45356
10799,46043
10800,47739
10801,48124
10802,48603
10803,49376
10804,49993
10805,50384
10806,50715
10807,51297
10808,51555
10809,51677
10810,51686
10811,51959
10812,51920
10813,52057
10814,52003
10815,51848
10816,51843
10817,51695
10818,51419
10819,51376
10820,50988
10821,50788
10822,50690
10823,49897
10824,49357
10825,48552
10826,48293
10827,47374
10828,46910
10829,46238
10830,45135
10831,44379
10832,43688
10833,42787
10834,41704
10835,40939
10836,39692
10837,38892
10838,37688
10839,36346
10840,35287
10841,33609
10842,32285
10843,30035
10844,29218
10845,28009
10846,26530
10847,25637
10848,24894
10849,23968
10850,23130
10851,22180
10852,21558
10853,20964
10854,20282
10855,19664
10856,19103
10857,18818
10858,18279
10859,17988
10860,17760
10861,16945
10862,16997
10863,16650
10864,16384
10865,16560
10866,16091
10867,16204
10868,16335
10869,16347
10870,16515
10871,16606
10872,16868
10873,17330
10874,17658
10875,17841
10876,18185
10877,18856
10878,19483
10879,19914
10880,20764
10881,21360
10882,22399
10883,23167
10884,23965
10885,24972
10886,26260
10887,27150
10888,28014
10889,28864
10890,30363
10891,31315
10892,32413
10893,33860
10894,34334
10895,35509
10896,37271
10897,38334
10898,38542
10899,39994
10900,41036
10901,42304
10902,43346
10903,43823
10904,44604
10905,45844
10906,46414
10907,47514
10908,48462
10909,48843
10910,49600
10911,50180
10912,50686
10913,50888
10914,51383
10915,51271
10916,51560
10917,51835
10918,51750
10919,51933
10920,51935
10921,51954
10922,51689
10923,51497
10924,51575
10925,51086
10926,51144
