Index;ECG
0;-1010,685000
1;-546,195000
2;-2058,615000
3;-119,340000
4;-442,455000
5;-220,740000
6;-178,815000
7;-104,130000
8;-270,075000
9;-316,095000
10;-149,175000
11;-56,550000
12;-112,320000
13;-49,335000
14;-233,805000
15;49,920000
16;-21,060000
17;-1728,480000
18;60,060000
19;-184,665000
20;132,795000
21;228,735000
22;338,325000
23;350,610000
24;156,585000
25;267,150000
26;127,530000
27;-220,545000
28;324,090000
29;360,555000
30;366,600000
31;414,960000
32;497,445000
33;341,640000
34;-1200,420000
35;656,565000
36;628,485000
37;724,230000
38;881,595000
39;356,070000
40;783,510000
41;875,940000
42;709,605000
43;871,650000
44;661,635000
45;935,415000
46;1003,080000
47;1075,230000
48;1260,675000
49;1060,215000
50;-334,230000
51;1254,045000
52;1388,985000
53;1465,230000
54;1392,690000
55;1557,855000
56;1402,635000
57;1739,790000
58;1752,855000
59;1418,430000
60;1782,300000
61;1785,030000
62;1965,600000
63;1844,895000
64;1802,580000
65;230,880000
66;1954,680000
67;1778,400000
68;1954,485000
69;1982,760000
70;2001,480000
71;2073,045000
72;2009,865000
73;1852,500000
74;2035,410000
75;2139,540000
76;-3913,065000
77;1711,710000
78;1883,700000
79;1719,120000
80;1504,620000
81;1577,550000
82;1396,005000
83;1532,895000
84;-726,960000
85;-617,175000
86;-923,520000
87;-460,395000
88;-554,775000
89;1251,705000
90;1002,885000
91;1012,245000
92;768,300000
93;748,020000
94;786,630000
95;752,895000
96;753,675000
97;750,360000
98;424,515000
99;524,160000
100;313,950000
101;421,980000
102;-1485,510000
103;96,915000
104;129,090000
105;259,350000
106;-9,555000
107;-63,570000
108;-219,180000
109;77,025000
110;-133,575000
111;-212,745000
112;-290,940000
113;-443,820000
114;-452,010000
115;-597,090000
116;-871,650000
117;-580,710000
118;-2527,590000
119;-669,435000
120;-916,110000
121;-967,395000
122;-1147,185000
123;-931,515000
124;-915,135000
125;-1150,500000
126;-1162,980000
127;-1399,905000
128;-1167,465000
129;-1266,720000
130;-1566,435000
131;-1406,535000
132;-1356,615000
133;-1523,145000
134;-1503,645000
135;-3338,010000
136;-1550,445000
137;-1454,115000
138;-1682,460000
139;-1919,580000
140;-1666,470000
141;-1590,615000
142;-1735,500000
143;-1836,315000
144;-2059,785000
145;-1605,630000
146;-1595,100000
147;-1715,805000
148;-1692,600000
149;-1553,760000
150;-1752,855000
151;-1672,125000
152;-3368,040000
153;-1678,950000
154;-1393,860000
155;-3923,010000
156;-603,720000
157;-562,185000
158;-550,875000
159;-362,310000
160;-182,910000
161;-589,485000
162;-233,025000
163;-494,910000
164;-126,165000
165;-99,060000
166;-44,265000
167;16,575000
168;-1517,100000
169;-1909,440000
170;-1615,185000
171;-1667,250000
172;-935,610000
173;653,835000
174;718,575000
175;495,300000
176;775,905000
177;620,295000
178;1024,335000
179;1073,475000
180;1050,660000
181;773,565000
182;857,610000
183;1148,355000
184;1407,510000
185;1077,570000
186;1059,240000
187;1376,310000
188;1382,160000
189;1253,265000
190;1413,165000
191;1396,395000
192;1570,530000
193;1521,585000
194;1546,935000
195;1618,305000
196;1407,510000
197;1786,395000
198;1719,120000
199;1689,870000
200;1765,140000
201;1605,630000
202;1793,610000
203;1930,305000
204;1253,850000
205;2003,625000
206;1901,835000
207;1875,510000
208;1846,650000
209;1918,410000
210;1425,255000
211;1869,855000
212;1865,370000
213;1766,115000
214;1712,295000
215;1711,125000
216;1461,915000
217;1547,910000
218;1680,315000
219;400,140000
220;1683,435000
221;1113,645000
222;923,715000
223;1065,285000
224;1053,195000
225;1024,920000
226;909,480000
227;719,940000
228;928,980000
229;810,615000
230;825,825000
231;787,020000
232;322,725000
233;-3926,910000
234;-2154,945000
235;-1770,015000
236;-3473,925000
237;-3370,770000
238;-2636,595000
239;-3325,725000
240;-1735,500000
241;-1674,270000
242;-1353,300000
243;-1317,030000
244;-1478,295000
245;-1638,195000
246;-1558,830000
247;-1625,130000
248;-1465,230000
249;-1439,880000
250;-1594,125000
251;-1577,355000
252;-1575,015000
253;-1720,875000
254;-3418,740000
255;-1504,425000
256;-1577,745000
257;-1401,660000
258;-1397,175000
259;-1754,610000
260;-1458,600000
261;-1536,600000
262;-1407,120000
263;-1741,935000
264;-1509,690000
265;-1750,710000
266;-1500,330000
267;-1368,510000
268;-1495,260000
269;-1426,230000
270;-1430,715000
271;-1632,345000
272;-3016,845000
273;-1234,740000
274;-1316,250000
275;-1096,680000
276;-1399,125000
277;-1212,900000
278;-1091,220000
279;-1015,170000
280;-970,905000
281;-1190,280000
282;-1061,970000
283;-1034,280000
284;-866,970000
285;-1012,635000
286;-1054,170000
287;-2422,680000
288;-589,875000
289;-784,680000
290;-701,610000
291;-529,620000
292;-479,700000
293;-368,745000
294;-411,060000
295;-819,390000
296;-257,400000
297;-272,805000
298;-139,620000
299;-178,230000
300;-114,660000
301;-423,150000
302;-187,980000
303;-45,435000
304;108,615000
305;-1771,380000
306;266,370000
307;-93,990000
308;288,600000
309;181,935000
310;368,940000
311;471,510000
312;94,965000
313;-3915,015000
314;782,340000
315;1417,845000
316;1053,780000
317;1382,940000
318;1489,020000
319;1492,335000
320;1654,575000
321;1558,830000
322;1256,775000
323;1720,485000
324;-43,875000
325;-134,355000
326;42,705000
327;111,345000
328;1756,950000
329;2025,465000
330;2029,365000
331;2014,350000
332;2046,525000
333;1929,720000
334;1901,055000
335;2046,330000
336;2049,060000
337;2087,670000
338;2059,785000
339;1817,595000
340;1989,585000
341;215,670000
342;1949,415000
343;2063,685000
344;1717,560000
345;1845,090000
346;1956,045000
347;2046,135000
348;1886,820000
349;1719,120000
350;1976,910000
351;1734,525000
352;1919,385000
353;1938,885000
354;1554,735000
355;1335,360000
356;18,720000
357;1614,015000
358;1661,595000
359;1633,515000
360;1605,825000
361;1228,695000
362;-3087,045000
363;-3421,665000
364;-2924,415000
365;-2957,760000
366;-2944,110000
367;-2638,155000
368;-2616,120000
369;-2729,415000
370;-2577,120000
371;-2300,415000
372;-2339,805000
373;-1909,050000
374;-3559,530000
375;-2102,685000
376;-1960,725000
377;-1723,800000
378;-1637,220000
379;-1766,310000
380;-1823,250000
381;-1885,650000
382;-1897,350000
383;-1735,890000
384;-1634,685000
385;-1616,940000
386;-1669,200000
387;-1478,490000
388;-1718,340000
389;-1479,855000
390;-1337,310000
391;-3924,570000
392;-1899,300000
393;-1850,160000
394;-1334,385000
395;80,730000
396;111,540000
397;-248,235000
398;-135,720000
399;-77,805000
400;29,445000
401;-14,235000
402;-400,335000
403;-412,815000
404;-237,900000
405;-127,725000
406;-108,810000
407;-224,055000
408;-427,830000
409;-353,535000
410;-401,505000
411;-165,360000
412;-184,665000
413;-400,920000
414;-247,845000
415;-154,050000
416;-333,840000
417;-83,655000
418;-248,625000
419;-181,545000
420;13,455000
421;32,760000
422;-65,325000
423;-230,685000
424;124,215000
425;237,510000
426;281,580000
427;405,600000
428;133,770000
429;377,715000
430;468,780000
431;424,515000
432;518,895000
433;360,165000
434;553,215000
435;586,950000
436;565,305000
437;737,880000
438;447,525000
439;579,345000
440;838,890000
441;949,845000
442;965,835000
443;614,835000
444;1083,420000
445;1266,720000
446;1245,465000
447;1187,355000
448;983,385000
449;1218,165000
450;1347,840000
451;1256,385000
452;1439,490000
453;240,240000
454;1561,560000
455;1540,110000
456;1252,290000
457;1585,350000
458;1590,030000
459;1420,965000
460;1599,780000
461;1825,005000
462;1866,540000
463;1800,630000
464;1853,865000
465;-3913,260000
466;1919,580000
467;1623,765000
468;1968,915000
469;1867,710000
470;-82,095000
471;1,755000
472;1744,080000
473;53,235000
474;1879,410000
475;1820,715000
476;1831,245000
477;1558,050000
478;1624,350000
479;1654,380000
480;1709,760000
481;1566,630000
482;1086,345000
483;1343,745000
484;1171,950000
485;-525,915000
486;891,735000
487;1031,160000
488;1092,975000
489;872,235000
490;509,730000
491;639,600000
492;581,880000
493;715,260000
494;555,360000
495;303,420000
496;419,445000
497;405,210000
498;114,075000
499;255,840000
500;-31,395000
501;-1502,475000
502;-53,040000
503;-449,865000
504;-313,170000
505;-349,440000
506;-361,920000
507;-510,705000
508;-470,925000
509;-544,830000
510;-621,270000
511;-713,115000
512;-674,895000
513;-734,760000
514;-847,470000
515;-825,825000
516;-1120,665000
517;-1309,230000
518;-2667,600000
519;-1116,180000
520;-1112,085000
521;-1179,945000
522;-1339,650000
523;-1548,105000
524;-1173,315000
525;-1361,490000
526;-1270,620000
527;-1485,510000
528;-1867,515000
529;-1513,395000
530;-1601,535000
531;-1610,310000
532;-1570,920000
533;-1648,530000
534;-3356,535000
535;-1629,420000
536;-1609,530000
537;-1581,060000
538;-1626,105000
539;-1604,070000
540;-1622,400000
541;-3925,155000
542;-977,535000
543;-1181,310000
544;-1022,190000
545;-800,280000
546;-1077,375000
547;-725,985000
548;-461,565000
549;-424,125000
550;-2211,885000
551;-2295,345000
552;-1876,485000
553;-1887,015000
554;209,430000
555;184,080000
556;52,650000
557;332,865000
558;369,915000
559;378,105000
560;370,305000
561;397,215000
562;763,620000
563;657,150000
564;689,715000
565;-1061,775000
566;806,910000
567;835,185000
568;774,930000
569;840,645000
570;1036,230000
571;795,015000
572;995,475000
573;881,985000
574;1206,465000
575;1220,505000
576;1058,460000
577;1403,025000
578;1478,880000
579;1501,305000
580;-281,190000
581;1424,475000
582;1627,860000
583;1698,840000
584;1483,755000
585;1411,605000
586;1388,205000
587;1633,320000
588;1620,255000
589;1555,125000
590;1426,230000
591;1630,785000
592;1666,470000
593;1582,620000
594;1670,955000
595;1555,125000
596;1256,190000
597;1618,305000
598;-119,925000
599;1680,315000
600;1819,155000
601;1608,945000
602;1452,360000
603;1545,960000
604;1497,405000
605;1492,920000
606;1540,500000
607;1454,895000
608;1178,775000
609;1330,875000
610;1322,490000
611;1374,165000
612;1193,010000
613;1268,865000
614;792,675000
615;1188,330000
616;-621,855000
617;1049,100000
618;925,860000
619;-3919,500000
620;-372,645000
621;-284,700000
622;-8,190000
623;-163,605000
624;-39,975000
625;-285,480000
626;-576,810000
627;-503,685000
628;-316,485000
629;-593,775000
630;-468,000000
631;-571,740000
632;-672,360000
633;-2446,665000
634;-2829,060000
635;-2751,645000
636;-2722,980000
637;-2247,180000
638;-902,070000
639;-917,085000
640;-1182,675000
641;-1203,345000
642;-1075,230000
643;-1200,615000
644;-1291,875000
645;-1301,625000
646;-1448,850000
647;-1433,055000
648;-1289,535000
649;-1430,130000
650;-1660,815000
651;-1731,795000
652;-1463,085000
653;-1411,020000
654;-1401,660000
655;-1632,540000
656;-1836,510000
657;-1723,605000
658;-1488,045000
659;-1599,975000
660;-1607,580000
661;-1842,750000
662;-1830,075000
663;-1814,670000
664;-1802,775000
665;-1802,385000
666;-1718,340000
667;-1626,105000
668;-1526,265000
669;-1682,070000
670;-1791,075000
671;-1531,530000
672;-1394,445000
673;-1363,635000
674;-1356,225000
675;-1304,160000
676;-1600,365000
677;-1289,535000
678;-1098,435000
679;-1042,860000
680;-1110,135000
681;-1301,625000
682;-1045,005000
683;-1229,085000
684;-1300,260000
685;-1043,445000
686;-1127,490000
687;-672,945000
688;-649,350000
689;-712,530000
690;-1096,095000
691;-659,100000
692;-575,835000
693;-410,280000
694;-440,310000
695;-3917,940000
696;264,030000
697;661,635000
698;259,740000
699;479,310000
700;859,170000
701;-876,330000
702;-934,830000
703;951,795000
704;-518,700000
705;1358,955000
706;1425,840000
707;1526,265000
708;1333,995000
709;1608,165000
710;1703,520000
711;1661,205000
712;1742,715000
713;1481,415000
714;1398,735000
715;1440,660000
716;-224,835000
717;1559,805000
718;1591,980000
719;1287,390000
720;1601,925000
721;1383,525000
722;1804,920000
723;1721,850000
724;1776,645000
725;1766,505000
726;1556,490000
727;1694,940000
728;1609,725000
729;1824,420000
730;1792,245000
731;1241,175000
732;-54,990000
733;1680,705000
734;1503,060000
735;1427,595000
736;1223,820000
737;1562,925000
738;1521,000000
739;1405,560000
740;1266,525000
741;1249,950000
742;1089,660000
743;1062,360000
744;1149,135000
745;998,400000
746;896,220000
747;709,020000
748;-905,970000
749;882,375000
750;795,015000
751;718,185000
752;309,075000
753;498,030000
754;475,215000
755;169,455000
756;473,265000
757;222,885000
758;172,575000
759;266,370000
760;36,270000
761;-115,050000
762;-5,070000
763;-131,040000
764;-185,640000
765;-1953,900000
766;-482,430000
767;-607,230000
768;-367,965000
769;-412,230000
770;-511,095000
771;-3926,910000
772;-1379,235000
773;-1791,855000
774;-1570,725000
775;-1541,475000
776;-1528,800000
777;-1787,760000
778;-1643,850000
779;-1704,105000
780;-1544,400000
781;-1790,490000
782;-1689,480000
783;-3644,550000
784;-3343,665000
785;-3243,240000
786;-3053,895000
787;-1564,875000
788;-1229,475000
789;-1253,265000
790;-1262,235000
791;-1335,945000
792;-1347,840000
793;-1598,025000
794;-1240,785000
795;-1287,585000
796;-1201,005000
797;-1277,640000
798;-1138,410000
799;-1461,135000
800;-1002,300000
801;-2874,885000
802;-1177,995000
803;-1060,995000
804;-1255,215000
805;-961,740000
806;-973,830000
807;-986,700000
808;-864,630000
809;-1183,845000
810;-821,340000
811;-850,395000
812;-707,070000
813;-762,840000
814;-967,395000
815;-719,745000
816;-2222,220000
817;-410,670000
818;-339,105000
819;-430,950000
820;-144,885000
821;-147,030000
822;-428,805000
823;-135,720000
824;90,090000
825;235,560000
826;85,605000
827;215,670000
828;-59,670000
829;250,185000
830;361,920000
831;397,020000
832;437,190000
833;-995,475000
834;522,210000
835;713,310000
836;599,040000
837;672,945000
838;927,810000
839;909,285000
840;726,375000
841;947,310000
842;1019,265000
843;1129,050000
844;1102,140000
845;1251,510000
846;925,665000
847;1306,110000
848;1495,455000
849;1367,535000
850;-3913,455000
851;1657,305000
852;-338,130000
853;-138,645000
854;46,605000
855;403,260000
856;1814,280000
857;1873,365000
858;1477,320000
859;1675,830000
860;1600,560000
861;1623,765000
862;1695,915000
863;1522,365000
864;1665,105000
865;1331,265000
866;1529,775000
867;1520,220000
868;-179,205000
869;1285,830000
870;-255,840000
871;-73,710000
872;-164,385000
873;-70,200000
874;-268,515000
875;-403,260000
876;-243,750000
877;-283,335000
878;-47,580000
879;-244,530000
880;-194,220000
881;-559,455000
882;-242,970000
883;-350,805000
884;-283,530000
885;-324,870000
886;-553,020000
887;-321,555000
888;-550,095000
889;-566,085000
890;-556,725000
891;-700,440000
892;-599,430000
893;-577,980000
894;-650,520000
895;-610,350000
896;-754,065000
897;-711,945000
898;-784,290000
899;-979,290000
900;-846,495000
901;-966,030000
902;-2317,770000
903;-1035,450000
904;-1140,165000
905;-1464,060000
906;-1222,845000
907;-1116,765000
908;-1303,380000
909;-1200,810000
910;-1344,525000
911;-1602,510000
912;-1499,355000
913;-1393,665000
914;-1352,715000
915;-1395,420000
916;-1440,660000
917;-1940,250000
918;-1271,205000
919;-1377,480000
920;-2933,190000
921;-1685,970000
922;-1522,950000
923;-1668,615000
924;-1383,525000
925;-1406,145000
926;-1563,705000
927;-1608,360000
928;-1498,380000
929;-1884,870000
930;-3924,180000
931;-1396,395000
932;-817,830000
933;-812,370000
934;-738,855000
935;-1073,085000
936;-816,270000
937;-679,965000
938;-2337,465000
939;-1955,265000
940;-1333,410000
941;-1686,165000
942;235,560000
943;-77,610000
944;292,110000
945;263,445000
946;244,530000
947;305,175000
948;451,815000
949;150,930000
950;333,840000
951;497,640000
952;661,245000
953;592,995000
954;541,125000
955;334,620000
956;-964,470000
957;588,705000
958;652,665000
959;823,485000
960;776,685000
961;621,855000
962;913,185000
963;846,885000
964;856,635000
965;866,190000
966;999,375000
967;865,410000
968;1046,955000
969;1056,120000
970;1124,760000
971;1201,395000
972;1235,325000
973;1059,435000
974;-416,910000
975;1388,790000
976;1581,840000
977;1585,545000
978;1675,635000
979;1336,920000
980;1620,060000
981;1558,050000
982;1760,850000
983;1647,945000
984;1443,780000
985;1798,095000
986;1692,405000
987;1655,940000
988;1834,560000
989;1591,395000
990;136,500000
991;1821,885000
992;2039,115000
993;1935,765000
994;1893,060000
995;2018,445000
996;2037,360000
997;1924,455000
998;2102,100000
999;1763,580000
1000;1964,820000
1001;1837,485000
1002;1817,400000
1003;1702,740000
1004;1634,100000
1005;14,235000
1006;1808,625000
1007;1736,280000
1008;-3919,695000
1009;96,720000
1010;-181,545000
1011;60,255000
1012;26,130000
1013;-140,790000
1014;-341,250000
1015;-540,150000
1016;-267,930000
1017;-441,675000
1018;-454,935000
1019;-294,645000
1020;-516,750000
1021;-2365,350000
1022;-2427,750000
1023;-2585,115000
1024;-2203,305000
1025;-2239,965000
1026;-595,725000
1027;-789,555000
1028;-856,245000
1029;-983,190000
1030;-735,735000
1031;-916,890000
1032;-830,505000
1033;-894,270000
1034;-979,875000
1035;-1176,825000
1036;-1019,070000
1037;-1122,225000
1038;-1109,940000
1039;-3202,680000
1040;-1344,525000
1041;-1501,500000
1042;-1175,460000
1043;-1256,970000
1044;-1227,330000
1045;-1490,385000
1046;-1506,180000
1047;-1674,660000
1048;-1372,605000
1049;-1330,680000
1050;-1529,385000
1051;-1442,025000
1052;-1690,845000
1053;-1689,870000
1054;-1479,660000
1055;-1554,735000
1056;-1551,615000
1057;-3320,265000
1058;-1653,210000
1059;-1574,625000
1060;-1534,845000
1061;-1498,965000
1062;-1640,535000
1063;-1665,885000
1064;-1500,915000
1065;-1444,755000
1066;-1807,065000
1067;-1389,570000
1068;-1373,775000
1069;-1329,315000
1070;-1215,240000
1071;-1219,920000
1072;-1275,690000
1073;-3022,695000
1074;-1209,390000
1075;-1103,505000
1076;-1072,695000
1077;-994,110000
1078;-1031,940000
1079;-1179,165000
1080;-980,070000
1081;-1096,485000
1082;-880,230000
1083;-752,895000
1084;-871,650000
1085;-845,130000
1086;-3918,135000
1087;-147,810000
1088;337,350000
1089;257,205000
1090;608,205000
1091;-1060,215000
1092;-1099,800000
1093;-866,190000
1094;752,505000
1095;1146,600000
1096;1120,080000
1097;1240,200000
1098;1204,125000
1099;1419,210000
1100;1212,900000
1101;1497,405000
1102;1245,270000
1103;1527,240000
1104;1595,685000
1105;1525,875000
1106;1261,650000
1107;1669,590000
1108;-134,355000
1109;1643,850000
1110;1739,595000
1111;1542,255000
1112;1745,835000
1113;1861,275000
1114;1798,485000
1115;1805,310000
1116;1567,605000
1117;1930,890000
1118;1979,250000
1119;2035,800000
1120;2037,750000
1121;1934,595000
1122;1949,220000
1123;359,970000
1124;1827,540000
1125;2032,485000
1126;1975,935000
1127;1856,400000
1128;1905,150000
1129;1970,280000
1130;1883,895000
1131;2003,625000
1132;1919,580000
1133;-1110,720000
1134;-1032,135000
1135;-834,015000
1136;-1244,490000
1137;-757,575000
1138;-700,635000
1139;-703,365000
1140;-633,945000
1141;-1786,200000
1142;-530,985000
1143;-377,910000
1144;-323,310000
1145;-432,315000
1146;-724,425000
1147;-538,980000
1148;-531,765000
1149;-341,640000
1150;-621,660000
1151;-672,750000
1152;-446,550000
1153;-570,375000
1154;-554,385000
1155;-556,725000
1156;-1826,175000
1157;-531,570000
1158;-526,695000
1159;-416,130000
1160;-496,665000
1161;-573,690000
1162;-516,945000
1163;-3924,570000
1164;-1220,895000
1165;-1054,560000
1166;-983,580000
1167;-1120,470000
1168;-1099,995000
1169;-6280,365000
1170;-1033,500000
1171;-1091,025000
1172;-2831,790000
1173;-2322,255000
1174;-487,695000
1175;-2156,310000
1176;-243,360000
1177;-208,455000
1178;-165,555000
1179;-457,860000
1180;-352,755000
1181;-400,920000
1182;-766,155000
1183;-416,910000
1184;-462,540000
1185;-547,365000
1186;-558,675000
1187;-440,115000
1188;-759,330000
1189;-2220,270000
1190;-439,335000
1191;-479,115000
1192;-528,255000
1193;-308,295000
1194;-613,860000
1195;-625,950000
1196;-622,245000
1197;-413,205000
1198;-328,575000
1199;-367,185000
1200;-706,875000
1201;-289,380000
1202;-287,625000
1203;-397,800000
1204;-395,265000
1205;-319,215000
1206;-555,165000
1207;-1900,275000
1208;-102,765000
1209;124,020000
1210;147,615000
1211;-7,995000
1212;-31,395000
1213;158,925000
1214;170,625000
1215;329,550000
1216;400,335000
1217;379,080000
1218;-27,300000
1219;301,080000
1220;390,585000
1221;405,600000
1222;543,660000
1223;584,610000
1224;-1027,065000
1225;677,625000
1226;686,400000
1227;650,520000
1228;626,340000
1229;551,850000
1230;778,050000
1231;881,205000
1232;896,025000
1233;986,310000
1234;1150,305000
1235;707,850000
1236;1088,685000
1237;1217,385000
1238;935,220000
1239;1393,275000
1240;1270,815000
1241;-446,160000
1242;1463,865000
1243;1514,565000
1244;1946,100000
1245;2078,895000
1246;1764,165000
1247;2006,745000
1248;2052,765000
1249;2067,975000
1250;2054,715000
1251;1883,505000
1252;2142,855000
1253;2066,220000
1254;1896,960000
1255;1890,525000
1256;1843,530000
1257;1572,870000
1258;112,710000
1259;120,120000
1260;172,380000
1261;1738,425000
1262;1975,935000
1263;1735,500000
1264;1986,855000
1265;1772,745000
1266;2034,045000
1267;2029,170000
1268;1631,565000
1269;1586,130000
1270;1574,040000
1271;1533,285000
1272;1357,785000
1273;1358,760000
1274;936,585000
1275;1368,705000
1276;1015,755000
1277;1145,625000
1278;925,860000
1279;1089,660000
1280;982,995000
1281;885,690000
1282;600,405000
1283;640,965000
1284;748,215000
1285;659,685000
1286;491,010000
1287;257,400000
1288;472,095000
1289;502,125000
1290;269,490000
1291;-1572,675000
1292;-51,285000
1293;93,405000
1294;55,380000
1295;-155,610000
1296;-128,895000
1297;-443,625000
1298;-362,115000
1299;-616,200000
1300;-719,940000
1301;-573,690000
1302;-567,645000
1303;-692,640000
1304;-693,615000
1305;-754,650000
1306;-950,820000
1307;-908,115000
1308;-2717,715000
1309;-929,760000
1310;-876,525000
1311;-1196,910000
1312;-1240,200000
1313;-1139,385000
1314;-1234,350000
1315;-1361,490000
1316;-1582,035000
1317;-1621,035000
1318;-1489,800000
1319;-1424,670000
1320;-3927,105000
1321;-1594,320000
1322;-1631,565000
1323;-1542,060000
1324;-3090,360000
1325;-3354,195000
1326;-3097,770000
1327;-2797,470000
1328;-2628,015000
1329;-883,545000
1330;-729,495000
1331;-991,965000
1332;-799,305000
1333;-699,660000
1334;-581,100000
1335;-614,445000
1336;-857,805000
1337;-587,145000
1338;-470,925000
1339;-391,170000
1340;-423,150000
1341;-2111,850000
1342;-785,850000
1343;-326,625000
1344;-438,555000
1345;-339,300000
1346;-351,000000
1347;-230,685000
1348;-521,235000
1349;-8,775000
1350;-115,440000
1351;-181,740000
1352;105,495000
1353;156,780000
1354;-163,215000
1355;174,135000
1356;249,600000
1357;388,245000
1358;457,080000
1359;183,690000
1360;539,565000
1361;705,120000
1362;787,995000
1363;814,905000
1364;675,090000
1365;1046,760000
1366;896,025000
1367;955,890000
1368;928,980000
1369;944,385000
1370;1200,615000
1371;1099,995000
1372;1230,645000
1373;-664,560000
1374;-742,755000
1375;-546,780000
1376;-416,910000
1377;-164,190000
1378;-220,545000
1379;-294,450000
1380;133,770000
1381;283,920000
1382;284,505000
1383;324,675000
1384;252,915000
1385;316,290000
1386;426,660000
1387;448,695000
1388;584,415000
1389;507,390000
1390;826,605000
1391;701,805000
1392;811,785000
1393;856,440000
1394;540,345000
1395;-3916,770000
1396;313,950000
1397;826,020000
1398;802,230000
1399;306,930000
1400;461,565000
1401;749,190000
1402;618,930000
1403;523,770000
1404;609,765000
1405;344,370000
1406;616,785000
1407;478,335000
1408;-1579,890000
1409;-1446,705000
1410;264,420000
1411;-1321,515000
1412;496,470000
1413;146,055000
1414;165,360000
1415;-247,065000
1416;47,775000
1417;134,160000
1418;84,630000
1419;75,855000
1420;-457,080000
1421;-230,685000
1422;-257,790000
1423;-280,020000
1424;-457,275000
1425;-754,845000
1426;-436,605000
1427;-578,955000
1428;-646,230000
1429;-749,580000
1430;-862,095000
1431;-638,625000
1432;-779,220000
1433;-1046,760000
1434;-1054,170000
1435;-899,535000
1436;-915,525000
1437;-1046,565000
1438;-1226,355000
1439;-1298,115000
1440;-1109,550000
1441;-1132,365000
1442;-1190,865000
1443;-1292,655000
1444;-1208,415000
1445;-1510,275000
1446;-1192,425000
1447;-1412,190000
1448;-1257,750000
1449;-1388,400000
1450;-1308,840000
1451;-1625,130000
1452;-1475,955000
1453;-1248,780000
1454;-1088,100000
1455;-1365,000000
1456;-1561,365000
1457;-1556,295000
1458;-1298,505000
1459;-1323,660000
1460;-1314,105000
1461;-1292,070000
1462;-1226,355000
1463;-1500,525000
1464;-1206,660000
1465;-1120,275000
1466;-1214,850000
1467;-1114,425000
1468;-970,905000
1469;-1211,145000
1470;-1141,920000
1471;-997,230000
1472;-1110,135000
1473;-938,535000
1474;-665,340000
1475;193,635000
1476;323,895000
1477;231,855000
1478;-131,430000
1479;374,010000
1480;439,335000
1481;135,525000
1482;458,055000
1483;551,265000
1484;761,475000
1485;644,280000
1486;607,620000
1487;754,650000
1488;833,235000
1489;810,030000
1490;1024,920000
1491;1055,340000
1492;1160,445000
1493;1150,500000
1494;855,270000
1495;1041,495000
1496;1085,370000
1497;1312,350000
1498;1385,280000
1499;1296,360000
1500;1091,415000
1501;1324,635000
1502;1465,425000
1503;1559,805000
1504;1549,275000
1505;1408,875000
1506;1583,205000
1507;1721,655000
1508;1770,405000
1509;1690,650000
1510;1529,385000
1511;1740,765000
1512;1819,155000
1513;1514,955000
1514;1740,375000
1515;1558,440000
1516;1859,910000
1517;1766,505000
1518;1824,420000
1519;1871,220000
1520;1634,100000
1521;1781,325000
1522;1836,510000
1523;1806,675000
1524;-56,355000
1525;-172,770000
1526;113,880000
1527;220,545000
1528;1906,515000
1529;1880,775000
1530;1488,045000
1531;1773,135000
1532;1777,035000
1533;1630,395000
1534;1511,445000
1535;1321,515000
1536;1558,440000
1537;1122,225000
1538;1354,275000
1539;1423,500000
1540;1105,455000
1541;1276,080000
1542;1095,900000
1543;1065,285000
1544;966,225000
1545;747,630000
1546;670,020000
1547;855,660000
1548;-3923,010000
1549;-591,630000
1550;-585,975000
1551;-587,340000
1552;-887,835000
1553;-757,380000
1554;-881,985000
1555;-993,915000
1556;-992,355000
1557;-1414,725000
1558;-1090,050000
1559;-1067,430000
1560;-1107,015000
1561;-1387,230000
1562;-1629,225000
1563;-1468,350000
1564;-1419,210000
1565;-1658,280000
1566;-1528,215000
1567;-1717,755000
1568;-1555,515000
1569;-2156,115000
1570;-3251,820000
1571;-3119,025000
1572;-3123,315000
1573;-1244,295000
1574;-1405,560000
1575;-1227,330000
1576;-1518,660000
1577;-1670,370000
1578;-1409,460000
1579;-1321,905000
1580;-1392,105000
1581;-1406,535000
1582;-1652,820000
1583;-1415,895000
1584;-1435,395000
1585;-1407,315000
1586;-1192,230000
1587;-1728,480000
1588;-1190,865000
1589;-1288,950000
1590;-1156,350000
1591;-1070,550000
1592;-1265,940000
1593;-946,140000
1594;-943,995000
1595;-1033,110000
1596;-976,560000
1597;-882,375000
1598;-1193,010000
1599;-902,460000
1600;-664,170000
1601;-604,695000
1602;-815,685000
1603;-803,400000
1604;-503,490000
1605;-381,420000
1606;-284,895000
1607;-265,980000
1608;-409,305000
1609;-216,060000
1610;-174,330000
1611;-317,850000
1612;55,575000
1613;12,480000
1614;-15,210000
1615;152,490000
1616;304,200000
1617;275,730000
1618;226,395000
1619;146,055000
1620;-3915,600000
1621;1381,185000
1622;1080,300000
1623;1461,915000
1624;1416,285000
1625;1549,860000
1626;1618,305000
1627;1517,100000
1628;1686,750000
1629;1637,025000
1630;1248,390000
1631;1715,610000
1632;1418,235000
1633;1595,100000
1634;1775,475000
1635;1742,910000
1636;1792,050000
1637;1505,205000
1638;1564,095000
1639;1550,055000
1640;1341,600000
1641;1639,170000
1642;1510,665000
1643;1221,870000
1644;1389,570000
1645;1235,910000
1646;1147,770000
1647;1229,670000
1648;1293,240000
1649;1366,755000
1650;1275,690000
1651;1257,165000
1652;957,255000
1653;1119,885000
1654;1081,665000
1655;1184,820000
1656;977,730000
1657;400,530000
1658;592,020000
1659;618,540000
1660;591,435000
1661;531,960000
1662;216,450000
1663;575,055000
1664;433,095000
1665;-29,640000
1666;448,110000
1667;54,405000
1668;98,475000
1669;208,455000
1670;38,610000
1671;-117,195000
1672;-132,015000
1673;-78,000000
1674;-248,625000
1675;-247,260000
1676;-345,930000
1677;-644,475000
1678;-271,440000
1679;-362,700000
1680;-444,990000
1681;-572,130000
1682;-528,645000
1683;-913,575000
1684;-2579,850000
1685;-2526,030000
1686;-2222,025000
1687;-2702,895000
1688;-668,070000
1689;-1294,995000
1690;-851,565000
1691;-1074,645000
1692;-901,485000
1693;-1041,885000
1694;-1019,655000
1695;-1293,825000
1696;-1072,110000
1697;-1075,815000
1698;-1314,885000
1699;-1323,465000
1700;-3927,300000
1701;-1659,840000
1702;-1532,310000
1703;-1415,115000
1704;-1606,800000
1705;-1670,370000
1706;-1709,565000
1707;-1638,975000
1708;-1443,780000
1709;-1574,625000
1710;-1335,945000
1711;-1379,625000
1712;-1304,355000
1713;-1457,430000
1714;-1334,970000
1715;-1504,230000
1716;-1004,055000
1717;-976,560000
1718;-1055,535000
1719;-990,795000
1720;-936,195000
1721;-1313,910000
1722;-992,550000
1723;-974,415000
1724;-870,285000
1725;-765,765000
1726;-654,030000
1727;-942,825000
1728;-703,560000
1729;-708,045000
1730;-460,785000
1731;-429,780000
1732;-418,470000
1733;-803,790000
1734;-366,405000
1735;-278,460000
1736;-426,660000
1737;-2018,445000
1738;-1821,495000
1739;-1216,020000
1740;-1381,185000
1741;615,030000
1742;488,085000
1743;629,265000
1744;352,170000
1745;689,715000
1746;729,885000
1747;459,225000
1748;983,190000
1749;967,590000
1750;633,555000
1751;969,540000
1752;869,505000
1753;980,265000
1754;969,930000
1755;1070,550000
1756;872,430000
1757;1135,485000
1758;1316,835000
1759;1305,525000
1760;1382,550000
1761;1445,340000
1762;1236,885000
1763;1577,160000
1764;1545,960000
1765;1565,265000
1766;1669,590000
1767;1534,065000
1768;1337,115000
1769;1489,800000
1770;1548,690000
1771;1545,180000
1772;1653,795000
1773;1763,190000
1774;1472,055000
1775;1616,160000
1776;1670,370000
1777;1672,905000
1778;1576,965000
1779;1792,440000
1780;1525,875000
1781;-3916,185000
1782;1070,550000
1783;1038,960000
1784;1046,370000
1785;768,690000
1786;1011,270000
1787;901,095000
1788;754,065000
1789;-1252,485000
1790;-988,065000
1791;-861,705000
1792;466,830000
1793;756,990000
1794;789,945000
1795;609,570000
1796;519,285000
1797;557,700000
1798;322,920000
1799;418,470000
1800;493,155000
1801;534,690000
1802;340,080000
1803;-15,795000
1804;150,540000
1805;2,145000
1806;150,345000
1807;157,950000
1808;-239,460000
1809;-103,155000
1810;-98,670000
1811;-204,165000
1812;-179,595000
1813;-626,535000
1814;-518,895000
1815;-560,430000
1816;-499,590000
1817;-834,405000
1818;-994,890000
1819;-779,610000
1820;-808,665000
1821;-1011,855000
1822;-1103,700000
1823;-1158,300000
1824;-1167,660000
1825;-1086,150000
1826;-1441,050000
1827;-1181,700000
1828;-1354,665000
1829;-1235,130000
1830;-1348,230000
1831;-1351,155000
1832;-1358,565000
1833;-1370,460000
1834;-1307,475000
1835;-1395,420000
1836;-1598,805000
1837;-1588,080000
1838;-1549,275000
1839;-1600,560000
1840;-1525,485000
1841;-1421,160000
1842;-1781,910000
1843;-1535,235000
1844;-1480,245000
1845;-1549,860000
1846;-1534,650000
1847;-1450,995000
1848;-1749,540000
1849;-1707,225000
1850;-1583,595000
1851;-1367,340000
1852;-1420,185000
1853;-3002,025000
1854;-1598,025000
1855;-1222,455000
1856;-1204,320000
1857;-1341,405000
1858;-3922,620000
1859;-338,130000
1860;-281,190000
1861;-501,540000
1862;-178,620000
1863;-35,100000
1864;-98,085000
1865;-238,680000
1866;75,855000
1867;-296,595000
1868;0,195000
1869;270,660000
1870;210,990000
1871;221,520000
1872;274,365000
1873;410,280000
1874;372,840000
1875;533,715000
1876;586,950000
1877;371,280000
1878;748,410000
1879;846,690000
1880;960,375000
1881;941,655000
1882;894,465000
1883;1053,975000
1884;1196,325000
1885;973,830000
1886;1180,335000
1887;1272,570000
1888;1387,425000
1889;1307,085000
1890;1082,835000
1891;1203,150000
1892;1505,400000
1893;1575,210000
1894;1597,440000
1895;1174,680000
1896;1526,460000
1897;1686,750000
1898;1456,845000
1899;1684,020000
1900;1575,210000
1901;1566,435000
1902;1702,740000
1903;1616,355000
1904;1440,855000
1905;-156,000000
1906;-152,490000
1907;397,215000
1908;79,755000
1909;1828,320000
1910;1540,305000
1911;1782,300000
1912;1761,045000
1913;1887,210000
1914;1830,660000
1915;1801,605000
1916;1547,715000
1917;1859,325000
1918;1797,900000
1919;1698,255000
1920;1574,625000
1921;1615,575000
1922;1427,400000
1923;1693,575000
1924;1532,310000
1925;-2832,570000
1926;-2718,300000
1927;-2505,945000
1928;-2878,785000
1929;-2510,040000
1930;-2317,185000
1931;-2101,710000
1932;-2142,270000
1933;-2313,480000
1934;-1892,670000
1935;-1925,040000
1936;-1622,010000
1937;-3924,570000
1938;-1049,490000
1939;-1039,740000
1940;-996,840000
1941;-1275,495000
1942;-564,720000
1943;-512,070000
1944;-651,105000
1945;-487,500000
1946;-611,520000
1947;-889,785000
1948;-730,080000
1949;-749,580000
1950;-705,315000
1951;-715,065000
1952;-710,190000
1953;-947,700000
1954;-846,105000
1955;-942,630000
1956;-676,650000
1957;-2787,720000
1958;-2330,250000
1959;-2504,970000
1960;-1776,060000
1961;-1689,870000
1962;49,725000
1963;-280,020000
1964;-281,970000
1965;-439,335000
1966;-180,180000
1967;-122,070000
1968;-482,430000
1969;-164,775000
1970;-410,670000
1971;-482,235000
1972;-333,060000
1973;-517,140000
1974;-404,235000
1975;-372,840000
1976;-388,050000
1977;-711,750000
1978;-348,660000
1979;-478,335000
1980;-328,185000
1981;-422,565000
1982;-487,500000
1983;-269,100000
1984;-281,580000
1985;-214,500000
1986;-288,990000
1987;-429,585000
1988;-237,510000
1989;-244,140000
1990;-103,740000
1991;-108,030000
1992;-245,115000
1993;-229,320000
1994;-78,780000
1995;-360,945000
1996;-25,350000
1997;134,550000
1998;-13,065000
1999;195,195000
2000;154,245000
2001;-112,710000
2002;231,660000
2003;205,530000
2004;366,015000
2005;465,270000
2006;333,255000
2007;124,800000
2008;464,490000
2009;494,715000
2010;278,460000
2011;583,830000
2012;361,725000
2013;607,620000
2014;750,360000
2015;818,610000
2016;787,995000
2017;-3914,625000
2018;1641,705000
2019;1718,145000
2020;1767,285000
2021;1553,955000
2022;1498,770000
2023;1833,000000
2024;1684,800000
2025;1832,610000
2026;1954,680000
2027;1890,720000
2028;2034,630000
2029;2004,405000
2030;1777,425000
2031;2063,490000
2032;2084,355000
2033;-444,015000
2034;-500,175000
2035;-214,305000
2036;-576,810000
2037;-305,175000
2038;-175,695000
2039;-147,810000
2040;-34,710000
2041;92,625000
2042;-162,435000
2043;62,790000
2044;-1,365000
2045;148,980000
2046;215,865000
2047;209,430000
2048;5,655000
2049;286,650000
2050;310,830000
2051;309,855000
2052;375,765000
2053;307,125000
2054;148,200000
2055;487,695000
2056;619,905000
2057;356,265000
2058;432,510000
2059;458,055000
2060;-90,285000
2061;332,280000
2062;349,635000
2063;412,815000
2064;312,975000
2065;371,865000
2066;188,370000
2067;346,125000
2068;146,445000
2069;174,915000
2070;304,395000
2071;23,205000
2072;151,905000
2073;243,360000
2074;244,140000
2075;227,565000
2076;-1986,270000
2077;-1634,295000
2078;-1528,605000
2079;-1350,765000
2080;194,415000
2081;-399,750000
2082;40,170000
2083;-6,825000
2084;-140,205000
2085;-100,620000
2086;-207,870000
2087;-308,685000
2088;-495,495000
2089;-655,785000
2090;-477,165000
2091;-257,985000
2092;-608,010000
2093;-627,900000
2094;-561,405000
2095;-598,455000
2096;-3924,570000
2097;-782,535000
2098;-856,635000
2099;-1037,010000
2100;-811,590000
2101;-1068,795000
2102;-905,580000
2103;-891,540000
2104;-759,720000
2105;-759,330000
2106;-733,005000
2107;-878,865000
2108;-674,505000
2109;-600,405000
2110;-720,525000
2111;-694,005000
2112;-631,605000
2113;-847,275000
2114;-764,985000
2115;-646,815000
2116;-492,570000
2117;-409,110000
2118;-628,095000
2119;-655,200000
2120;-249,600000
2121;-74,880000
2122;-117,585000
2123;43,095000
2124;-26,910000
2125;114,270000
2126;-286,455000
2127;-2232,945000
2128;-1266,720000
2129;684,255000
2130;-832,845000
2131;866,190000
2132;1016,145000
2133;724,230000
2134;426,660000
2135;902,655000
2136;781,170000
2137;997,815000
2138;907,140000
2139;594,945000
2140;796,380000
2141;1033,305000
2142;1080,300000
2143;1087,515000
2144;998,010000
2145;1233,375000
2146;1288,365000
2147;1039,155000
2148;1226,160000
2149;1282,905000
2150;1421,355000
2151;1513,200000
2152;1474,590000
2153;1125,735000
2154;1491,165000
2155;1529,775000
2156;1668,030000
2157;1593,930000
2158;1597,830000
2159;1384,305000
2160;1767,675000
2161;1818,570000
2162;1673,100000
2163;1646,970000
2164;1676,220000
2165;1616,550000
2166;1881,165000
2167;1611,285000
2168;1921,920000
2169;1971,060000
2170;1893,450000
2171;1806,285000
2172;1936,545000
2173;1943,175000
2174;1980,420000
2175;2154,555000
2176;-3914,235000
2177;1714,830000
2178;-263,640000
2179;-317,460000
2180;-207,870000
2181;-384,150000
2182;1365,585000
2183;1623,765000
2184;1580,085000
2185;1422,720000
2186;1343,745000
2187;1289,730000
2188;1235,130000
2189;1084,200000
2190;846,885000
2191;1049,685000
2192;891,930000
2193;529,035000
2194;784,680000
2195;650,130000
2196;476,970000
2197;798,135000
2198;687,570000
2199;637,260000
2200;342,030000
2201;339,885000
2202;248,820000
2203;471,705000
2204;394,680000
2205;260,910000
2206;207,675000
2207;91,845000
2208;-230,490000
2209;-39,975000
2210;-98,865000
2211;-172,380000
2212;-114,075000
2213;-194,805000
2214;-422,370000
2215;-349,245000
2216;-558,870000
2217;-561,405000
2218;-561,795000
2219;-656,175000
2220;-873,990000
2221;-764,790000
2222;-971,685000
2223;-791,115000
2224;-1078,545000
2225;-960,375000
2226;-1360,125000
2227;-946,530000
2228;-1027,065000
2229;-1266,135000
2230;-1219,725000
2231;-1191,450000
2232;-1580,475000
2233;-1398,150000
2234;-1552,395000
2235;-1363,245000
2236;-1523,925000
2237;-1553,175000
2238;-1815,450000
2239;-1607,775000
2240;-1723,215000
2241;-1572,480000
2242;-1712,685000
2243;-1708,785000
2244;-1909,830000
2245;-1594,320000
2246;-1694,940000
2247;-1631,760000
2248;-2728,635000
2249;-1716,195000
2250;-2065,830000
2251;-1554,540000
2252;-1526,070000
2253;-1715,610000
2254;-1657,890000
2255;-1595,490000
2256;-1793,025000
2257;-1533,285000
2258;-3923,790000
2259;-1346,280000
2260;-655,590000
2261;-777,075000
2262;-702,390000
2263;-647,400000
2264;-887,640000
2265;-816,855000
2266;-692,835000
2267;-468,390000
2268;-318,045000
2269;-506,415000
2270;-355,680000
2271;-259,350000
2272;-139,035000
2273;-75,660000
2274;-454,740000
2275;-28,470000
2276;119,340000
2277;295,425000
2278;215,670000
2279;138,060000
2280;394,875000
2281;571,155000
2282;258,570000
2283;507,195000
2284;543,075000
2285;723,060000
2286;755,625000
2287;728,130000
2288;438,165000
2289;781,365000
2290;978,510000
2291;936,195000
2292;923,520000
2293;911,820000
2294;850,200000
2295;1062,165000
2296;1224,015000
2297;1173,900000
2298;1229,865000
2299;1347,060000
2300;1079,520000
2301;1424,280000
2302;-358,410000
2303;-419,445000
2304;-203,775000
2305;1424,865000
2306;1678,560000
2307;1567,410000
2308;1773,330000
2309;1792,830000
2310;1814,865000
2311;1512,030000
2312;1794,390000
2313;1716,780000
2314;1783,470000
2315;1695,525000
2316;1583,010000
2317;1294,605000
2318;1669,395000
2319;1652,625000
2320;1620,060000
2321;1797,510000
2322;1702,545000
2323;1466,400000
2324;1717,560000
2325;1498,770000
2326;1698,645000
2327;1683,045000
2328;1694,550000
2329;1476,735000
2330;1630,980000
2331;1424,085000
2332;1513,980000
2333;1422,330000
2334;1310,205000
2335;1099,215000
2336;1118,130000
2337;1167,855000
2338;-3920,475000
2339;-30,420000
2340;-124,215000
2341;-123,825000
2342;-475,020000
2343;-334,815000
2344;-467,610000
2345;-369,135000
2346;-558,480000
2347;-954,525000
2348;-596,115000
2349;-893,685000
2350;-887,250000
2351;-922,545000
2352;-1139,970000
2353;-1014,975000
2354;-2776,800000
2355;-3125,460000
2356;-2833,740000
2357;-2901,990000
2358;-2359,500000
2359;-1154,400000
2360;-1059,240000
2361;-1156,935000
2362;-1349,595000
2363;-1569,360000
2364;-1322,490000
2365;-1257,555000
2366;-1489,410000
2367;-1313,520000
2368;-1446,900000
2369;-1450,410000
2370;-1541,670000
2371;-1449,045000
2372;-1766,700000
2373;-1533,675000
2374;-1566,630000
2375;-1746,225000
2376;-1487,070000
2377;-1738,035000
2378;-1465,425000
2379;-1547,325000
2380;-1580,085000
2381;-1487,460000
2382;-1475,370000
2383;-1580,670000
2384;-1575,795000
2385;-1821,495000
2386;-1592,955000
2387;-1641,315000
2388;-1480,050000
2389;-1369,290000
2390;-1458,210000
2391;-1773,330000
2392;-1435,590000
2393;-1303,770000
2394;-1233,570000
2395;-1293,045000
2396;-1561,560000
2397;-1098,045000
2398;-1274,325000
2399;-1146,795000
2400;-940,290000
2401;-996,840000
2402;-665,730000
2403;-683,670000
2404;-645,450000
2405;-629,460000
2406;-892,905000
2407;-588,120000
2408;-599,820000
2409;-432,900000
2410;-402,090000
2411;-573,885000
2412;-225,225000
2413;-148,200000
2414;-3917,940000
2415;878,865000
2416;1118,520000
2417;561,210000
2418;981,435000
2419;1051,440000
2420;1292,850000
2421;1212,510000
2422;1242,930000
2423;991,380000
2424;1346,085000
2425;1411,215000
2426;1486,875000
2427;1364,610000
2428;1539,135000
2429;1226,940000
2430;1704,300000
2431;1595,295000
2432;1591,980000
2433;1712,490000
2434;1362,855000
2435;1568,385000
2436;1698,255000
2437;1788,345000
2438;1770,795000
2439;1256,190000
2440;1692,600000
2441;1724,580000
2442;1744,080000
2443;1757,730000
2444;1680,120000
2445;1754,610000
2446;1788,150000
2447;1589,835000
2448;1861,080000
2449;1759,290000
2450;1855,620000
2451;1824,420000
2452;1579,500000
2453;1438,125000
2454;1625,325000
2455;1645,605000
2456;1655,940000
2457;1445,535000
2458;1566,630000
2459;1240,980000
2460;1542,255000
2461;1428,960000
2462;1202,565000
2463;1048,905000
2464;884,520000
2465;1107,210000
2466;1064,115000
2467;987,675000
2468;800,085000
2469;775,515000
2470;576,225000
2471;-1204,320000
2472;-1070,355000
2473;-930,150000
2474;-1049,685000
2475;461,175000
2476;544,440000
2477;381,225000
2478;388,050000
2479;342,030000
2480;-77,610000
2481;200,850000
2482;98,865000
2483;-24,765000
2484;-195,585000
2485;-424,515000
2486;-159,120000
2487;-247,065000
2488;-280,020000
2489;-617,955000
2490;-3925,935000
2491;-1429,350000
2492;-1627,665000
2493;-1891,890000
2494;-1578,525000
2495;-1555,125000
2496;-1530,945000
2497;-1670,955000
2498;-1589,445000
2499;-1857,960000
2500;-1545,570000
2501;-1500,330000
2502;-1624,740000
2503;-1689,675000
2504;-1809,990000
2505;-1954,095000
2506;-1806,480000
2507;-1748,955000
2508;-1610,505000
2509;-1575,990000
2510;-1757,535000
2511;-1839,240000
2512;-1648,140000
2513;-1547,325000
2514;-1557,660000
2515;-1494,675000
2516;-1728,675000
2517;-1492,725000
2518;-1441,050000
2519;-1240,200000
2520;-3138,330000
2521;-3005,925000
2522;-2374,710000
2523;-2367,105000
2524;-811,590000
2525;-471,705000
2526;-529,815000
2527;-644,670000
2528;-476,385000
2529;-371,280000
2530;-376,935000
2531;-185,445000
2532;-370,500000
2533;-324,675000
2534;-427,635000
2535;-602,160000
2536;-260,325000
2537;-110,760000
2538;-39,975000
2539;72,930000
2540;-40,170000
2541;-202,995000
2542;224,835000
2543;114,660000
2544;269,295000
2545;416,715000
2546;117,975000
2547;472,680000
2548;524,160000
2549;501,735000
2550;563,940000
2551;323,895000
2552;716,625000
2553;771,420000
2554;782,925000
2555;813,150000
2556;902,460000
2557;1033,500000
2558;1069,380000
2559;697,905000
2560;1163,565000
2561;1106,820000
2562;1170,975000
2563;1331,655000
2564;1170,585000
2565;1121,055000
2566;1358,955000
2567;1150,305000
2568;1418,625000
2569;-3914,040000
2570;1082,445000
2571;-197,535000
2572;-22,620000
2573;187,980000
2574;1790,685000
2575;1593,930000
2576;1460,160000
2577;1643,070000
2578;1660,035000
2579;1713,075000
2580;1483,365000
2581;1487,850000
2582;1300,845000
2583;1540,305000
2584;1265,550000
2585;1142,310000
2586;1251,705000
2587;1242,735000
2588;973,635000
2589;1006,200000
2590;1103,505000
2591;880,035000
2592;923,325000
2593;419,055000
2594;682,890000
2595;704,925000
2596;593,775000
2597;569,985000
2598;492,960000
2599;436,410000
2600;418,275000
2601;219,960000
2602;188,175000
2603;298,935000
2604;142,740000
2605;272,610000
2606;-62,010000
2607;-181,545000
2608;-27,105000
2609;-183,300000
2610;-356,850000
2611;-341,835000
2612;-324,285000
2613;-412,425000
2614;-582,855000
2615;-602,160000
2616;-544,830000
2617;-892,515000
2618;-639,990000
2619;-808,860000
2620;-721,890000
2621;-824,070000
2622;-1106,430000
2623;-1062,165000
2624;-1014,000000
2625;-1103,310000
2626;-1172,730000
2627;-1224,600000
2628;-1496,040000
2629;-1318,980000
2630;-1375,140000
2631;-1487,265000
2632;-1399,125000
2633;-1405,950000
2634;-1790,295000
2635;-1527,240000
2636;-1496,040000
2637;-3181,425000
2638;-1616,745000
2639;-1490,385000
2640;-1820,715000
2641;-1504,425000
2642;-1533,480000
2643;-1632,735000
2644;-1727,895000
2645;-1627,080000
2646;-1959,555000
2647;-1885,845000
2648;-1777,035000
2649;-1666,665000
2650;-1666,275000
2651;-3925,350000
2652;-1552,005000
2653;-1197,495000
2654;-977,145000
2655;-946,335000
2656;-906,360000
2657;-967,980000
2658;-1120,860000
2659;-780,780000
2660;-644,475000
2661;-599,430000
2662;-634,335000
2663;-757,575000
2664;-507,195000
2665;-328,770000
2666;-345,345000
2667;-261,300000
2668;-238,875000
2669;47,385000
2670;-29,835000
2671;-17,940000
2672;47,775000
2673;-19,110000
2674;78,195000
2675;341,835000
2676;421,005000
2677;524,745000
2678;389,220000
2679;641,745000
2680;562,185000
2681;412,425000
2682;802,230000
2683;795,210000
2684;855,465000
2685;900,705000
2686;891,540000
2687;772,005000
2688;-889,590000
2689;-783,900000
2690;-325,650000
2691;-421,395000
2692;1492,140000
2693;1197,690000
2694;1521,000000
2695;1675,830000
2696;1549,080000
2697;1437,540000
2698;1490,190000
2699;1758,900000
2700;1799,655000
2701;1747,980000
2702;1594,710000
2703;1574,430000
2704;1914,510000
2705;1813,695000
2706;1831,440000
2707;1811,160000
2708;1737,645000
2709;1933,035000
2710;1843,335000
2711;2042,430000
2712;2021,175000
2713;1958,775000
2714;1919,775000
2715;1853,865000
2716;1628,250000
2717;1939,860000
2718;1736,085000
2719;1638,000000
2720;1798,485000
2721;1551,420000
2722;1391,325000
2723;1429,350000
2724;1463,475000
2725;1091,220000
2726;1308,645000
2727;-3918,525000
2728;217,815000
2729;204,360000
2730;180,180000
2731;61,620000
2732;-175,890000
2733;-25,350000
2734;1,755000
2735;-138,255000
2736;-2063,100000
2737;-2278,185000
2738;-2078,895000
2739;-2146,170000
2740;-514,800000
2741;-369,330000
2742;-353,730000
2743;-654,225000
2744;-488,670000
2745;-889,785000
2746;-686,985000
2747;-585,390000
2748;-758,940000
2749;-981,825000
2750;-986,505000
2751;-1216,995000
2752;-931,710000
2753;-1061,190000
2754;-1097,655000
2755;-1093,755000
2756;-1170,390000
2757;-1384,305000
2758;-1205,685000
2759;-1255,800000
2760;-1211,535000
2761;-1426,425000
2762;-1289,925000
2763;-1814,085000
2764;-1511,055000
2765;-1388,205000
2766;-1531,530000
2767;-1570,920000
2768;-1404,390000
2769;-1720,485000
2770;-1648,725000
2771;-1481,220000
2772;-1589,055000
2773;-1605,435000
2774;-1493,700000
2775;-1759,485000
2776;-1476,150000
2777;-1543,035000
2778;-1571,115000
2779;-1458,795000
2780;-1369,095000
2781;-1635,465000
2782;-1385,085000
2783;-1370,655000
2784;-1439,880000
2785;-1184,820000
2786;-1421,745000
2787;-1146,210000
2788;-1230,450000
2789;-1140,555000
2790;-1184,625000
2791;-1381,575000
2792;-1054,170000
2793;-876,915000
2794;-994,890000
2795;-1032,135000
2796;-1161,810000
2797;-750,360000
2798;-729,885000
2799;-697,905000
2800;-598,455000
2801;-531,765000
2802;-569,595000
2803;-2024,490000
2804;-256,230000
2805;-3918,330000
2806;818,025000
2807;869,115000
2808;925,665000
2809;917,280000
2810;660,270000
2811;855,855000
2812;1001,325000
2813;1183,455000
2814;1204,710000
2815;1269,840000
2816;889,005000
2817;1333,800000
2818;1321,905000
2819;1148,160000
2820;1442,220000
2821;1634,100000
2822;1297,140000
2823;1484,535000
2824;1503,840000
2825;1609,335000
2826;1694,940000
2827;1570,530000
2828;1374,945000
2829;1568,580000
2830;1783,470000
2831;1820,910000
2832;1791,465000
2833;1577,160000
2834;1475,760000
2835;1838,655000
2836;1617,720000
2837;1813,500000
2838;1716,195000
2839;1699,815000
2840;1507,740000
2841;1718,535000
2842;1680,705000
2843;1806,090000
2844;1775,670000
2845;1839,045000
2846;1698,060000
2847;1705,470000
2848;1417,455000
2849;1557,075000
2850;1193,010000
2851;1015,560000
2852;1231,425000
2853;1039,545000
2854;1125,150000
2855;1009,515000
2856;-497,055000
2857;-1054,950000
2858;-957,645000
2859;-834,210000
2860;-540,345000
2861;1083,030000
2862;733,785000
2863;912,795000
2864;945,360000
2865;865,410000
2866;580,710000
2867;515,970000
2868;661,635000
2869;401,115000
2870;473,655000
2871;378,300000
2872;70,785000
2873;218,595000
2874;289,770000
2875;134,940000
2876;210,600000
2877;-132,795000
2878;-79,170000
2879;61,230000
2880;10,140000
2881;-217,035000
2882;-384,540000
2883;-444,015000
2884;-3925,740000
2885;-1687,920000
2886;-1560,000000
2887;-1538,550000
2888;-1467,765000
2889;-1518,075000
2890;-1714,830000
2891;-1457,625000
2892;-1615,185000
2893;-1476,150000
2894;-1744,665000
2895;-1795,365000
2896;-1895,595000
2897;-1658,085000
2898;-1642,485000
2899;-1469,325000
2900;-1588,665000
2901;-1470,885000
2902;-1489,605000
2903;-1497,210000
2904;-3664,830000
2905;-3019,575000
2906;-2749,500000
2907;-2562,885000
2908;-937,170000
2909;-1049,490000
2910;-837,720000
2911;-750,165000
2912;-776,490000
2913;-861,705000
2914;-1005,615000
2915;-664,560000
2916;-828,165000
2917;-1028,430000
2918;-812,760000
2919;-686,010000
2920;-672,750000
2921;-524,550000
2922;-601,380000
2923;-779,025000
2924;-468,000000
2925;-406,185000
2926;-478,530000
2927;-382,785000
2928;-421,980000
2929;-437,190000
2930;-210,795000
2931;-218,985000
2932;-147,420000
2933;-52,845000
2934;-228,735000
2935;49,725000
2936;148,200000
2937;273,390000
2938;319,995000
2939;233,220000
2940;177,645000
2941;487,695000
2942;528,645000
2943;379,860000
2944;493,935000
2945;680,355000
2946;877,890000
2947;483,795000
2948;820,560000
2949;822,315000
2950;964,665000
2951;1115,010000
2952;986,310000
2953;745,680000
2954;1071,135000
2955;1165,125000
2956;1080,495000
2957;943,215000
2958;720,720000
2959;1039,350000
2960;1089,660000
2961;1107,795000
2962;1134,510000
2963;-3914,430000
2964;1687,725000
2965;1643,850000
2966;1554,540000
2967;1454,115000
2968;1495,650000
2969;1591,200000
2970;1513,590000
2971;1452,360000
2972;1199,055000
2973;1403,220000
2974;1497,600000
2975;1565,850000
2976;1329,120000
2977;1074,645000
2978;1389,960000
2979;1396,785000
2980;1180,335000
2981;1162,785000
2982;1144,260000
2983;892,515000
2984;1057,095000
2985;979,290000
2986;837,720000
2987;886,470000
2988;521,235000
2989;547,755000
2990;465,660000
2991;176,085000
2992;628,680000
2993;517,530000
2994;417,690000
2995;347,295000
2996;163,605000
2997;109,200000
2998;263,835000
2999;143,715000
3000;29,835000
3001;191,490000
3002;48,945000
3003;-152,880000
3004;-145,665000
3005;-91,455000
3006;-316,485000
3007;-295,620000
3008;-490,620000
3009;-744,120000
3010;-575,250000
3011;-468,390000
3012;-601,965000
3013;-844,545000
3014;-1100,385000
3015;-976,755000
3016;-864,240000
3017;-1078,935000
3018;-1093,365000
3019;-1441,050000
3020;-1225,770000
3021;-2846,805000
3022;-3198,585000
3023;-2983,305000
3024;-2624,505000
3025;-1224,015000
3026;-1354,275000
3027;-1673,100000
3028;-1241,370000
3029;-1253,460000
3030;-1467,765000
3031;-1474,200000
3032;-1298,115000
3033;-1639,560000
3034;-1391,715000
3035;-1490,970000
3036;-1544,010000
3037;-1733,355000
3038;-1443,000000
3039;-1946,685000
3040;-1518,270000
3041;-1508,130000
3042;-1548,300000
3043;-1423,500000
3044;-3924,180000
3045;-908,505000
3046;-720,135000
3047;-897,780000
3048;-730,665000
3049;-612,495000
3050;-896,025000
3051;-526,305000
3052;-275,145000
3053;-323,895000
3054;-432,900000
3055;-444,210000
3056;-336,180000
3057;-239,850000
3058;-525,330000
3059;-154,635000
3060;-140,205000
3061;-55,185000
3062;-59,280000
3063;-165,165000
3064;11,700000
3065;255,645000
3066;126,555000
3067;184,080000
3068;352,950000
3069;180,570000
3070;429,780000
3071;405,600000
3072;-905,580000
3073;-1111,695000
3074;-834,600000
3075;-309,660000
3076;-331,695000
3077;963,885000
3078;1040,715000
3079;1167,660000
3080;974,805000
3081;1285,050000
3082;1319,760000
3083;1340,235000
3084;1505,400000
3085;1088,490000
3086;1484,535000
3087;1587,105000
3088;1583,400000
3089;1591,395000
3090;1529,580000
3091;1784,640000
3092;1727,505000
3093;1363,440000
3094;1735,695000
3095;1713,855000
3096;1916,265000
3097;1917,435000
3098;1438,905000
3099;1182,480000
3100;1536,405000
3101;1626,690000
3102;1532,895000
3103;1633,125000
3104;1613,235000
3105;1370,265000
3106;1450,215000
3107;1582,620000
3108;1602,705000
3109;1562,340000
3110;1160,250000
3111;1217,190000
3112;1594,710000
3113;1512,810000
3114;1573,455000
3115;1482,195000
3116;1577,745000
3117;1355,055000
3118;1409,460000
3119;1526,265000
3120;1650,675000
3121;1569,360000
3122;1444,365000
3123;-3918,330000
3124;-1496,040000
3125;-1530,360000
3126;-1903,005000
3127;-1332,825000
3128;-1410,630000
3129;74,685000
3130;-37,440000
3131;3,315000
3132;-92,625000
3133;-53,430000
3134;-495,690000
3135;-349,635000
3136;-331,695000
3137;-566,085000
3138;-640,380000
3139;-824,655000
3140;-611,130000
3141;-623,805000
3142;-1034,865000
3143;-899,340000
3144;-719,550000
3145;-1340,040000
3146;-925,470000
3147;-1004,445000
3148;-879,840000
3149;-1053,000000
3150;-1402,050000
3151;-1298,895000
3152;-1166,490000
3153;-1323,465000
3154;-1346,865000
3155;-1319,565000
3156;-1348,425000
3157;-1360,125000
3158;-1609,335000
3159;-1486,485000
3160;-1609,920000
3161;-1574,235000
3162;-1590,420000
3163;-1499,550000
3164;-1811,355000
3165;-1546,155000
3166;-1583,790000
3167;-1592,760000
3168;-1638,390000
3169;-1489,800000
3170;-1919,580000
3171;-1530,555000
3172;-1473,030000
3173;-1496,235000
3174;-1686,555000
3175;-1417,845000
3176;-1829,490000
3177;-1708,980000
3178;-1589,640000
3179;-1489,410000
3180;-1473,420000
3181;-1612,845000
3182;-1437,150000
3183;-1322,100000
3184;-1181,895000
3185;-1259,895000
3186;-1340,820000
3187;-1058,070000
3188;-1004,835000
3189;-1050,660000
3190;-2739,360000
3191;-1176,045000
3192;-611,910000
3193;-670,410000
3194;-631,605000
3195;-619,320000
3196;-814,710000
3197;-463,515000
3198;-386,490000
3199;270,855000
3200;121,290000
3201;672,360000
3202;826,215000
3203;807,885000
3204;919,620000
3205;655,200000
3206;985,725000
3207;821,340000
3208;1134,510000
3209;986,700000
3210;819,780000
3211;1168,830000
3212;1227,330000
3213;1159,080000
3214;1370,070000
3215;1285,830000
3216;1389,180000
3217;1290,120000
3218;1090,050000
3219;1599,000000
3220;1726,140000
3221;1520,025000
3222;1574,040000
3223;1642,290000
3224;1443,975000
3225;1645,605000
3226;1601,535000
3227;1570,335000
3228;1797,705000
3229;1553,370000
3230;1293,045000
3231;1425,255000
3232;1241,760000
3233;1294,215000
3234;1394,640000
3235;1544,985000
3236;1251,705000
3237;1509,495000
3238;1358,565000
3239;1340,625000
3240;1534,845000
3241;-52,455000
3242;-707,265000
3243;-390,195000
3244;-211,380000
3245;-64,545000
3246;1675,245000
3247;1534,650000
3248;1306,500000
3249;1368,510000
3250;1465,230000
3251;1254,045000
3252;1414,335000
3253;1442,805000
3254;1121,055000
3255;1281,735000
3256;1181,895000
3257;1040,910000
3258;1076,400000
3259;940,875000
3260;692,835000
3261;959,790000
3262;940,290000
3263;698,295000
3264;715,065000
3265;364,650000
3266;596,895000
3267;388,245000
3268;299,715000
3269;201,630000
3270;-148,785000
3271;50,505000
3272;-67,470000
3273;-55,575000
3274;-113,490000
3275;-443,430000
3276;-325,455000
3277;-484,380000
3278;-499,590000
3279;-3925,545000
3280;-1514,760000
3281;-1361,100000
3282;-1479,855000
3283;-1748,370000
3284;-1698,060000
3285;-1436,955000
3286;-1540,695000
3287;-1584,960000
3288;-1814,475000
3289;-1429,740000
3290;-1605,630000
3291;-3512,145000
3292;-3190,590000
3293;-1210,170000
3294;-2753,205000
3295;-893,295000
3296;-1009,515000
3297;-1121,250000
3298;-1086,930000
3299;-922,740000
3300;-1063,725000
3301;-1270,815000
3302;-919,815000
3303;-1097,850000
3304;-1012,245000
3305;-1108,185000
3306;-922,740000
3307;-1183,260000
3308;-1056,705000
3309;-975,195000
3310;-864,630000
3311;-789,360000
3312;-1175,070000
3313;-913,380000
3314;-700,440000
3315;-624,585000
3316;-625,170000
3317;-862,095000
3318;-623,220000
3319;-558,675000
3320;-637,065000
3321;-419,835000
3322;-706,875000
3323;-231,660000
3324;-271,440000
3325;-203,190000
3326;-132,015000
3327;-345,735000
3328;-148,395000
3329;-42,120000
3330;-307,125000
3331;257,205000
3332;35,295000
3333;319,215000
3334;266,565000
3335;326,430000
3336;91,845000
3337;509,145000
3338;620,880000
3339;551,850000
3340;606,255000
3341;514,605000
3342;427,440000
3343;442,455000
3344;794,430000
3345;795,795000
3346;973,635000
3347;892,125000
3348;690,300000
3349;1032,915000
3350;741,000000
3351;1259,700000
3352;1304,940000
3353;1383,330000
3354;1020,240000
3355;1492,335000
3356;-3913,260000
3357;1234,740000
3358;1707,030000
3359;1399,320000
3360;1652,625000
3361;1634,880000
3362;1508,130000
3363;1686,750000
3364;1651,845000
3365;1677,195000
3366;1655,160000
3367;1660,230000
3368;1267,890000
3369;1760,070000
3370;1605,435000
3371;1631,370000
3372;1540,695000
3373;1349,400000
3374;1098,435000
3375;1194,570000
3376;1407,900000
3377;1422,915000
3378;1429,350000
3379;1150,890000
3380;960,570000
3381;1191,255000
3382;1083,030000
3383;1030,770000
3384;905,190000
3385;866,580000
3386;459,420000
3387;845,520000
3388;509,925000
3389;761,865000
3390;624,585000
3391;46,800000
3392;666,900000
3393;518,505000
3394;456,300000
3395;422,370000
3396;61,620000
3397;224,445000
3398;171,990000
3399;196,950000
3400;59,475000
3401;-275,145000
3402;-98,280000
3403;-138,255000
3404;-272,805000
3405;-452,985000
3406;-680,940000
3407;-426,660000
3408;-520,455000
3409;-506,415000
3410;-2423,265000
3411;-2399,085000
3412;-2307,435000
3413;-1084,590000
3414;-736,320000
3415;-854,880000
3416;-992,550000
3417;-907,725000
3418;-1043,445000
3419;-1208,220000
3420;-1015,560000
3421;-1088,685000
3422;-1092,195000
3423;-1223,040000
3424;-1249,365000
3425;-1691,430000
3426;-1343,355000
3427;-1230,645000
3428;-1355,055000
3429;-1301,040000
3430;-1594,320000
3431;-1462,695000
3432;-1501,695000
3433;-3926,520000
3434;-1455,285000
3435;-1305,720000
3436;-1506,375000
3437;-1154,790000
3438;-1290,120000
3439;-1306,695000
3440;-1024,725000
3441;-1271,010000
3442;-1057,095000
3443;-939,315000
3444;-872,235000
3445;-904,020000
3446;-971,685000
3447;-602,355000
3448;-651,885000
3449;-573,105000
3450;-590,070000
3451;-743,535000
3452;-310,830000
3453;-326,820000
3454;-228,540000
3455;-160,680000
3456;-194,025000
3457;-37,635000
3458;-1562,730000
3459;-1549,665000
3460;-1334,190000
3461;-789,360000
3462;570,570000
3463;688,155000
3464;714,090000
3465;704,340000
3466;543,660000
3467;951,405000
3468;921,960000
3469;933,660000
3470;900,315000
3471;917,670000
3472;1222,260000
3473;1092,975000
3474;973,050000
3475;1197,495000
3476;1297,335000
3477;1273,935000
3478;1410,435000
3479;1414,335000
3480;1142,115000
3481;1532,505000
3482;1655,940000
3483;1656,720000
3484;1625,520000
3485;1463,865000
3486;1716,000000
3487;1737,840000
3488;1751,100000
3489;1723,410000
3490;1761,630000
3491;1826,565000
3492;1786,980000
3493;1587,105000
3494;1558,635000
3495;1794,195000
3496;1847,430000
3497;1914,900000
3498;1828,710000
3499;1640,730000
3500;1865,370000
3501;1782,105000
3502;1448,265000
3503;1447,485000
3504;1487,460000
3505;1225,575000
3506;1431,690000
3507;1536,210000
3508;1288,755000
3509;1258,335000
3510;1348,815000
3511;-3919,110000
3512;629,655000
3513;575,055000
3514;498,810000
3515;485,355000
3516;409,695000
3517;72,735000
3518;223,665000
3519;240,825000
3520;290,355000
3521;85,800000
3522;-270,075000
3523;-8,385000
3524;-79,755000
3525;-148,590000
3526;-247,260000
3527;-540,345000
3528;-608,010000
3529;-500,760000
3530;-595,725000
3531;-886,275000
3532;-1035,255000
3533;-833,820000
3534;-928,785000
3535;-1086,735000
3536;-1208,220000
3537;-1079,325000
3538;-1200,810000
3539;-1148,940000
3540;-1384,305000
3541;-1297,920000
3542;-1372,995000
3543;-1349,010000
3544;-1504,035000
3545;-1452,750000
3546;-1651,845000
3547;-1551,420000
3548;-1608,165000
3549;-1552,980000
3550;-1577,940000
3551;-1857,570000
3552;-1742,910000
3553;-1641,705000
3554;-1495,845000
3555;-1600,560000
3556;-1913,535000
3557;-1718,145000
3558;-1745,445000
3559;-1742,715000
3560;-1677,195000
3561;-1736,280000
3562;-1617,525000
3563;-1658,670000
3564;-1900,470000
3565;-1685,385000
3566;-1669,005000
3567;-1461,135000
3568;-1570,725000
3569;-1474,590000
3570;-1814,085000
3571;-1497,015000
3572;-1567,800000
3573;-1280,760000
3574;-3163,680000
3575;-2809,365000
3576;-3038,685000
3577;-2478,645000
3578;-2439,255000
3579;-718,185000
3580;-460,395000
3581;-540,150000
3582;-466,635000
3583;-807,885000
3584;-391,365000
3585;-473,070000
3586;-330,525000
3587;-231,855000
3588;-558,870000
3589;-3918,720000
3590;307,515000
3591;276,900000
3592;814,320000
3593;669,630000
3594;658,125000
3595;422,760000
3596;836,745000
3597;591,630000
3598;901,680000
3599;662,025000
3600;945,165000
3601;1078,935000
3602;1143,090000
3603;734,760000
3604;1252,095000
3605;1072,110000
3606;1246,050000
3607;1392,690000
3608;1491,555000
3609;1212,315000
3610;1380,210000
3611;1526,655000
3612;1485,315000
3613;1456,650000
3614;1213,290000
3615;1109,745000
3616;1396,005000
3617;1511,835000
3618;1538,940000
3619;1458,405000
3620;1353,300000
3621;1648,530000
3622;1645,020000
3623;1346,475000
3624;1650,480000
3625;1646,190000
3626;1668,225000
3627;1720,875000
3628;74,880000
3629;-297,375000
3630;-57,135000
3631;-57,915000
3632;309,660000
3633;1717,365000
3634;1714,635000
3635;1630,200000
3636;1583,790000
3637;1547,130000
3638;1604,655000
3639;1601,340000
3640;1312,155000
3641;1514,565000
3642;1426,425000
3643;1471,860000
3644;1373,970000
3645;1485,315000
3646;1183,455000
3647;1413,945000
3648;1208,220000
3649;1370,850000
3650;1176,435000
3651;1123,395000
3652;870,675000
3653;1000,545000
3654;1012,245000
3655;959,400000
3656;866,970000
3657;854,100000
3658;655,005000
3659;704,535000
3660;704,925000
3661;538,590000
3662;534,495000
3663;297,375000
3664;418,275000
3665;237,315000
3666;188,565000
3667;159,120000
3668;-141,180000
3669;39,390000
3670;-3924,765000
3671;-1105,650000
3672;-1102,920000
3673;-1195,935000
3674;-1359,540000
3675;-1392,300000
3676;-1466,790000
3677;-1385,280000
3678;-1285,635000
3679;-3443,115000
3680;-3113,370000
3681;-1380,990000
3682;-2941,575000
3683;-1119,885000
3684;-1172,730000
3685;-1410,825000
3686;-1607,580000
3687;-1419,795000
3688;-1277,835000
3689;-1263,210000
3690;-1386,840000
3691;-1678,755000
3692;-1455,480000
3693;-1537,575000
3694;-1310,400000
3695;-1396,590000
3696;-1392,885000
3697;-1365,195000
3698;-1379,235000
3699;-1661,985000
3700;-1433,640000
3701;-1234,350000
3702;-1094,925000
3703;-1159,470000
3704;-1259,115000
3705;-1443,780000
3706;-1195,545000
3707;-1282,515000
3708;-1071,720000
3709;-1104,285000
3710;-938,535000
3711;-1114,230000
3712;-812,370000
3713;-834,990000
3714;-842,010000
3715;-812,175000
3716;-685,425000
3717;-887,445000
3718;-615,030000
3719;-531,765000
3720;-535,080000
3721;-312,195000
3722;-373,035000
3723;-803,205000
3724;-475,215000
3725;-152,490000
3726;-21,255000
3727;36,855000
3728;-86,775000
3729;-436,605000
3730;24,180000
3731;109,980000
3732;186,030000
3733;-48,555000
3734;272,025000
3735;59,865000
3736;323,700000
3737;428,415000
3738;355,875000
3739;405,795000
3740;427,050000
3741;410,085000
3742;684,255000
3743;768,105000
3744;719,355000
3745;691,860000
3746;594,360000
3747;-906,360000
3748;1007,565000
3749;1127,100000
3750;-3914,235000
3751;1758,705000
3752;1442,220000
3753;1712,295000
3754;1768,260000
3755;1566,240000
3756;1823,835000
3757;1829,100000
3758;1823,250000
3759;1898,520000
3760;1565,265000
3761;1731,600000
3762;1809,210000
3763;1750,905000
3764;1712,490000
3765;1314,105000
3766;1508,130000
3767;1590,420000
3768;1522,170000
3769;1607,775000
3770;1123,005000
3771;1375,530000
3772;1261,845000
3773;1331,850000
3774;1163,955000
3775;1192,815000
3776;1262,625000
3777;1039,545000
3778;1024,530000
3779;863,070000
3780;805,350000
3781;581,100000
3782;638,430000
3783;423,150000
3784;747,045000
3785;527,670000
3786;572,325000
3787;489,450000
3788;407,550000
3789;62,010000
3790;406,185000
3791;356,070000
3792;390,585000
3793;96,330000
3794;171,015000
3795;-71,565000
3796;-116,805000
3797;-1803,750000
3798;-1989,780000
3799;-1753,635000
3800;-1324,050000
3801;-109,785000
3802;-212,745000
3803;-462,150000
3804;-413,400000
3805;-752,310000
3806;-488,280000
3807;-544,635000
3808;-609,570000
3809;-694,980000
3810;-1165,905000
3811;-883,740000
3812;-947,505000
3813;-1419,795000
3814;-1056,315000
3815;-1078,155000
3816;-1256,580000
3817;-1206,270000
3818;-1250,340000
3819;-1366,170000
3820;-1214,070000
3821;-1131,585000
3822;-1293,825000
3823;-1287,195000
3824;-1318,785000
3825;-1766,700000
3826;-1354,665000
3827;-3926,520000
3828;-1516,125000
3829;-1309,035000
3830;-1475,760000
3831;-1583,985000
3832;-1470,690000
3833;-1509,495000
3834;-1333,605000
3835;-1291,680000
3836;-1436,565000
3837;-1182,285000
3838;-1158,885000
3839;-1176,240000
3840;-971,295000
3841;-1172,730000
3842;-843,375000
3843;-923,715000
3844;-825,045000
3845;-812,175000
3846;-2570,880000
3847;-2260,635000
3848;-1948,830000
3849;-1656,720000
3850;181,740000
3851;-71,955000
3852;134,745000
3853;330,915000
3854;319,215000
3855;380,835000
3856;166,530000
3857;387,075000
3858;488,475000
3859;425,685000
3860;552,435000
3861;707,460000
3862;682,110000
3863;706,290000
3864;593,385000
3865;707,265000
3866;932,490000
3867;941,460000
3868;824,655000
3869;1050,270000
3870;896,805000
3871;1073,670000
3872;1146,600000
3873;1212,510000
3874;1211,145000
3875;1158,105000
3876;1164,735000
3877;1352,325000
3878;1403,220000
3879;1500,135000
3880;1412,385000
3881;1142,115000
3882;1388,595000
3883;1662,960000
3884;1603,290000
3885;1613,820000
3886;1447,485000
3887;1737,840000
3888;1805,115000
3889;1758,705000
3890;1771,770000
3891;1683,045000
3892;1804,530000
3893;1726,140000
3894;1772,940000
3895;1777,425000
3896;1602,510000
3897;1756,950000
3898;1849,575000
3899;1738,425000
3900;1664,715000
3901;-3935,490000
3902;-3075,735000
3903;-2869,815000
3904;-3148,665000
3905;-2154,750000
3906;-2125,890000
3907;-2155,725000
3908;-2023,515000
3909;-2000,505000
3910;-2310,750000
3911;-1900,470000
3912;-1489,995000
3913;-1513,395000
3914;-1349,010000
3915;-1781,130000
3916;-1480,830000
3917;-1573,260000
3918;-1380,405000
3919;-1400,490000
3920;-1731,015000
3921;-1362,465000
3922;-1343,550000
3923;-1413,555000
3924;-1452,945000
3925;-1684,800000
3926;-1557,270000
3927;-1300,845000
3928;-1493,700000
3929;-1420,965000
3930;-1611,480000
3931;-1593,540000
3932;-1319,955000
3933;-1341,015000
3934;-1243,710000
3935;-1496,820000
3936;-1158,300000
3937;-1165,710000
3938;-1153,815000
3939;-1121,445000
3940;-1506,375000
3941;-1313,715000
3942;-1202,175000
3943;-1309,620000
3944;-1154,595000
3945;-1050,270000
3946;-954,135000
3947;-864,630000
3948;-1139,970000
3949;-839,085000
3950;-862,680000
3951;-877,110000
3952;-652,665000
3953;-744,120000
3954;-1004,445000
3955;-731,640000
3956;-625,950000
3957;-718,965000
3958;-2472,405000
3959;-1755,390000
3960;-2003,235000
3961;-1370,850000
3962;-1197,690000
3963;60,450000
3964;383,175000
3965;102,765000
3966;-59,670000
3967;156,975000
3968;34,320000
3969;166,530000
3970;39,000000
3971;93,210000
3972;-59,475000
3973;63,570000
3974;85,800000
3975;250,380000
3976;250,575000
3977;-3918,330000
3978;861,315000
3979;721,305000
3980;677,625000
3981;504,855000
3982;973,830000
3983;804,765000
3984;940,485000
3985;1038,570000
3986;1122,810000
3987;800,865000
3988;1062,750000
3989;1243,710000
3990;1107,600000
3991;1381,770000
3992;1216,800000
3993;1456,260000
3994;1263,600000
3995;1472,640000
3996;1513,005000
3997;1395,615000
3998;1743,885000
3999;1680,705000
4000;1736,865000
4001;1509,885000
4002;1762,800000
4003;1781,910000
4004;1849,380000
4005;1552,590000
4006;1895,205000
4007;1907,880000
4008;1775,085000
4009;1822,665000
4010;403,065000
4011;242,580000
4012;270,075000
4013;623,805000
4014;2247,960000
4015;2253,030000
4016;1816,620000
4017;2169,570000
4018;2283,840000
4019;2056,275000
4020;2087,670000
4021;1880,970000
4022;1900,470000
4023;2126,280000
4024;2113,410000
4025;1992,315000
4026;2140,710000
4027;2152,215000
4028;1718,730000
4029;2031,705000
4030;2025,660000
4031;1956,240000
4032;1854,645000
4033;1679,340000
4034;1446,120000
4035;1699,620000
4036;1766,115000
4037;1412,385000
4038;1624,935000
4039;1116,180000
4040;1429,155000
4041;1289,925000
4042;1334,190000
4043;1378,455000
4044;1313,130000
4045;998,205000
4046;1164,540000
4047;1023,360000
4048;1031,745000
4049;850,005000
4050;624,585000
4051;616,590000
4052;690,495000
4053;336,765000
4054;656,760000
4055;452,985000
4056;-3923,985000
4057;-865,020000
4058;-984,750000
4059;-1426,425000
4060;-964,275000
4061;-1189,305000
4062;-3074,370000
4063;-2936,700000
4064;-1350,375000
4065;-2962,245000
4066;-1072,500000
4067;-1217,580000
4068;-1175,265000
4069;-1544,985000
4070;-1317,030000
4071;-1409,850000
4072;-1375,335000
4073;-1457,040000
4074;-1415,310000
4075;-1741,740000
4076;-1649,115000
4077;-1547,910000
4078;-1488,045000
4079;-1577,550000
4080;-1755,000000
4081;-1625,130000
4082;-1570,920000
4083;-1551,420000
4084;-1426,425000
4085;-1738,035000
4086;-1370,070000
4087;-1533,675000
4088;-1443,975000
4089;-1834,365000
4090;-1338,870000
4091;-1315,275000
4092;-1232,985000
4093;-1525,875000
4094;-1249,365000
4095;-1167,075000
4096;-1307,475000
4097;-1152,450000
4098;-1184,040000
4099;-1282,710000
4100;-1210,560000
4101;-1242,345000
4102;-816,465000
4103;-769,470000
4104;-785,460000
4105;-979,290000
4106;-875,550000
4107;-692,835000
4108;-529,620000
4109;-609,570000
4110;-490,815000
4111;-763,230000
4112;-673,920000
4113;-493,155000
4114;-298,545000
4115;-276,315000
4116;-274,755000
4117;-421,200000
4118;-101,985000
4119;-361,335000
4120;-40,755000
4121;-9,555000
4122;15,795000
4123;-182,130000
4124;164,580000
4125;177,450000
4126;328,770000
4127;247,065000
4128;374,010000
4129;119,145000
4130;-1235,520000
4131;691,665000
4132;677,040000
4133;672,945000
4134;-3914,625000
4135;1609,725000
4136;1635,855000
4137;1333,410000
4138;1736,085000
4139;1820,715000
4140;1567,410000
4141;1651,845000
4142;1803,555000
4143;1733,940000
4144;1829,880000
4145;1862,445000
4146;1833,390000
4147;1674,660000
4148;1439,880000
4149;1746,810000
4150;1709,175000
4151;1658,475000
4152;1658,280000
4153;1754,610000
4154;1313,520000
4155;1742,520000
4156;1762,995000
4157;1644,435000
4158;1662,570000
4159;1335,945000
4160;1677,585000
4161;1536,405000
4162;1447,485000
4163;1335,750000
4164;1381,965000
4165;1219,530000
4166;1205,490000
4167;1020,435000
4168;1061,775000
4169;1149,720000
4170;1128,270000
4171;805,935000
4172;794,040000
4173;514,410000
4174;830,115000
4175;779,415000
4176;407,160000
4177;769,665000
4178;558,090000
4179;329,745000
4180;423,540000
4181;-1295,580000
4182;-1492,335000
4183;-1254,045000
4184;190,905000
4185;422,955000
4186;375,180000
4187;233,025000
4188;148,980000
4189;-10,335000
4190;126,165000
4191;-105,300000
4192;-157,755000
4193;-321,555000
4194;-252,720000
4195;-271,050000
4196;-381,225000
4197;-653,055000
4198;-517,140000
4199;-600,015000
4200;-603,135000
4201;-836,745000
4202;-712,140000
4203;-759,525000
4204;-847,080000
4205;-1044,615000
4206;-1081,665000
4207;-1069,380000
4208;-1059,045000
4209;-1146,015000
4210;-1192,620000
4211;-1588,665000
4212;-1354,665000
4213;-1523,925000
4214;-3927,105000
4215;-1391,325000
4216;-1701,765000
4217;-1597,245000
4218;-1391,910000
4219;-1410,435000
4220;-1465,035000
4221;-1478,685000
4222;-1591,005000
4223;-1271,400000
4224;-1398,735000
4225;-1323,660000
4226;-1073,280000
4227;-1174,290000
4228;-1498,575000
4229;-1177,800000
4230;-2689,050000
4231;-2498,145000
4232;-2106,780000
4233;-1775,280000
4234;-240,045000
4235;-260,325000
4236;-229,515000
4237;-260,520000
4238;-376,935000
4239;-36,075000
4240;-40,170000
4241;20,865000
4242;26,715000
4243;-188,760000
4244;47,385000
4245;167,505000
4246;191,490000
4247;385,710000
4248;163,800000
4249;143,910000
4250;500,370000
4251;493,545000
4252;740,415000
4253;505,830000
4254;653,250000
4255;741,780000
4256;870,675000
4257;807,885000
4258;863,070000
4259;845,325000
4260;1005,030000
4261;875,160000
4262;998,790000
4263;1112,085000
4264;1156,350000
4265;1238,445000
4266;1162,005000
4267;1063,920000
4268;1362,465000
4269;1314,690000
4270;1427,400000
4271;1304,940000
4272;1491,945000
4273;1277,445000
4274;1397,565000
4275;1547,715000
4276;1775,475000
4277;1684,215000
4278;1603,485000
4279;1493,700000
4280;1587,300000
4281;1719,705000
4282;1665,690000
4283;1636,635000
4284;1574,040000
4285;1810,380000
4286;1478,685000
4287;1628,445000
4288;1856,400000
4289;1762,800000
4290;1284,660000
4291;1808,820000
4292;1741,740000
4293;-3921,450000
4294;-149,565000
4295;-59,670000
4296;-443,235000
4297;-85,215000
4298;-242,775000
4299;-49,530000
4300;-130,650000
4301;-507,585000
4302;-288,015000
4303;-258,180000
4304;-309,855000
4305;-302,055000
4306;-291,135000
4307;-432,315000
4308;-394,875000
4309;-679,575000
4310;-436,410000
4311;-676,065000
4312;-494,910000
4313;-725,400000
4314;-718,965000
4315;-968,565000
4316;-717,210000
4317;-761,475000
4318;-831,285000
4319;-804,180000
4320;-862,485000
4321;-1182,675000
4322;-936,390000
4323;-1116,960000
4324;-1069,380000
4325;-990,795000
4326;-1347,840000
4327;-1245,270000
4328;-1284,855000
4329;-1408,095000
4330;-1312,155000
4331;-1339,065000
4332;-1368,705000
4333;-1358,565000
4334;-1771,185000
4335;-1394,055000
4336;-1463,280000
4337;-1462,305000
4338;-1599,780000
4339;-1543,230000
4340;-1755,585000
4341;-1561,755000
4342;-1615,965000
4343;-1512,420000
4344;-1571,895000
4345;-1692,795000
4346;-1976,520000
4347;-3528,525000
4348;-3124,680000
4349;-2851,095000
4350;-2989,740000
4351;-1033,500000
4352;-1266,915000
4353;-1045,785000
4354;-1245,075000
4355;-1103,310000
4356;-1156,935000
4357;-1222,065000
4358;-1481,805000
4359;-1088,880000
4360;-1094,145000
4361;-1140,945000
4362;-1146,015000
4363;-1188,525000
4364;-945,360000
4365;-982,215000
4366;-1076,790000
4367;-1083,615000
4368;-1273,740000
4369;-995,670000
4370;-855,855000
4371;-655,200000
4372;-3921,255000
4373;146,250000
4374;45,630000
4375;178,035000
4376;130,845000
4377;95,355000
4378;444,600000
4379;498,030000
4380;391,365000
4381;516,555000
4382;123,240000
4383;540,735000
4384;605,280000
4385;827,775000
4386;873,600000
4387;630,240000
4388;850,980000
4389;913,185000
4390;1098,435000
4391;1031,160000
4392;962,130000
4393;1024,335000
4394;1151,085000
4395;1286,805000
4396;-483,210000
4397;1322,685000
4398;1597,245000
4399;1651,455000
4400;1191,645000
4401;1462,500000
4402;1477,320000
4403;1685,580000
4404;1450,995000
4405;1671,930000
4406;1674,465000
4407;1863,810000
4408;1799,265000
4409;1723,800000
4410;1262,625000
4411;1502,280000
4412;1758,900000
4413;1801,410000
4414;1859,325000
4415;1850,550000
4416;1960,725000
4417;1555,905000
4418;1962,285000
4419;1862,250000
4420;1734,915000
4421;2079,090000
4422;1931,280000
4423;1687,725000
4424;1759,875000
4425;1865,370000
4426;1730,040000
4427;1724,970000
4428;1419,405000
4429;1746,225000
4430;1686,165000
4431;1622,400000
4432;1587,105000
4433;593,385000
4434;934,050000
4435;855,075000
4436;689,910000
4437;800,865000
4438;454,740000
4439;531,765000
4440;689,520000
4441;709,410000
4442;701,610000
4443;242,385000
4444;415,350000
4445;380,250000
4446;422,370000
4447;364,455000
4448;-3929,640000
4449;-2248,935000
4450;-2351,310000
4451;-2423,850000
4452;-780,195000
4453;-2433,990000
4454;-725,400000
4455;-768,690000
4456;-594,750000
4457;-757,380000
4458;-941,265000
4459;-940,290000
4460;-883,740000
4461;-976,950000
4462;-1048,515000
4463;-1403,610000
4464;-1209,585000
4465;-1292,460000
4466;-1087,125000
4467;-1178,190000
4468;-1539,135000
4469;-1267,890000
4470;-1267,500000
4471;-1303,770000
4472;-1250,730000
4473;-1254,630000
4474;-1327,950000
4475;-1446,120000
4476;-1745,250000
4477;-1340,430000
4478;-1309,035000
4479;-1552,395000
4480;-1469,910000
4481;-1460,160000
4482;-1722,630000
4483;-1461,915000
4484;-1333,995000
4485;-1343,160000
4486;-1266,525000
4487;-1341,405000
4488;-1224,015000
4489;-1191,060000
4490;-1218,555000
4491;-1047,930000
4492;-994,500000
4493;-1314,885000
4494;-1002,495000
4495;-1383,330000
4496;-1148,550000
4497;-1038,180000
4498;-1008,930000
4499;-1115,400000
4500;-938,925000
4501;-728,325000
4502;-695,175000
4503;-574,665000
4504;-679,575000
4505;-1013,610000
4506;-665,925000
4507;-487,305000
4508;-453,765000
4509;-413,790000
4510;-359,775000
4511;-620,685000
4512;-365,235000
4513;-204,555000
4514;-1924,260000
4515;-227,760000
4516;-127,140000
4517;214,695000
4518;207,285000
4519;74,100000
4520;246,870000
4521;-79,755000
4522;446,550000
4523;510,510000
4524;696,930000
4525;552,240000
4526;-3915,210000
4527;-3912,480000
4528;1658,280000
4529;1690,065000
4530;1759,095000
4531;1342,575000
4532;1800,045000
4533;1814,085000
4534;1813,305000
4535;1670,370000
4536;1606,995000
4537;1803,360000
4538;1834,755000
4539;1767,480000
4540;1896,570000
4541;1299,285000
4542;1267,500000
4543;1294,020000
4544;1213,290000
4545;1273,350000
4546;1016,925000
4547;1218,360000
4548;1353,105000
4549;1022,775000
4550;1162,785000
4551;919,620000
4552;1105,455000
4553;1174,290000
4554;966,225000
4555;1126,125000
4556;913,575000
4557;839,085000
4558;960,375000
4559;933,855000
4560;459,030000
4561;-1043,250000
4562;-997,230000
4563;-772,980000
4564;-958,815000
4565;667,095000
4566;410,670000
4567;724,230000
4568;690,885000
4569;626,730000
4570;582,270000
4571;550,875000
4572;347,490000
4573;608,595000
4574;488,280000
4575;89,310000
4576;297,960000
4577;-17,160000
4578;68,835000
4579;-42,900000
4580;75,855000
4581;-47,190000
4582;-403,845000
4583;-273,195000
4584;-243,360000
4585;-382,785000
4586;-305,565000
4587;-717,405000
4588;-516,165000
4589;-620,880000
4590;-692,640000
4591;-778,050000
4592;-993,135000
4593;-738,465000
4594;-1141,920000
4595;-1022,385000
4596;-1121,055000
4597;-1426,815000
4598;-1137,045000
4599;-1163,955000
4600;-1381,770000
4601;-3926,910000
4602;-1646,580000
4603;-1428,180000
4604;-1632,150000
4605;-1560,780000
4606;-1646,385000
4607;-1577,160000
4608;-1459,770000
4609;-1428,375000
4610;-3134,625000
4611;-2699,190000
4612;-2947,425000
4613;-2319,525000
4614;-2284,230000
4615;-517,725000
4616;-544,245000
4617;-488,865000
4618;-839,085000
4619;-679,185000
4620;-518,700000
4621;-463,125000
4622;-451,425000
4623;-379,275000
4624;-573,495000
4625;-410,865000
4626;-341,445000
4627;-350,025000
4628;-534,690000
4629;-190,710000
4630;-405,600000
4631;-196,560000
4632;-157,170000
4633;-130,455000
4634;-7,020000
4635;38,805000
4636;-134,745000
4637;129,090000
4638;259,935000
4639;263,250000
4640;197,340000
4641;183,690000
4642;-27,885000
4643;336,570000
4644;312,585000
4645;584,610000
4646;502,515000
4647;542,490000
4648;348,465000
4649;572,130000
4650;676,260000
4651;622,050000
4652;768,690000
4653;718,770000
4654;663,975000
4655;923,130000
4656;1085,760000
4657;1119,690000
4658;1202,760000
4659;1262,820000
4660;910,845000
4661;1224,795000
4662;1314,105000
4663;1321,905000
4664;1326,000000
4665;1597,440000
4666;1469,325000
4667;1547,715000
4668;1679,535000
4669;1700,205000
4670;1409,460000
4671;1452,555000
4672;1709,760000
4673;1790,490000
4674;1716,780000
4675;1773,135000
4676;1768,065000
4677;1426,230000
4678;1835,730000
4679;1886,430000
4680;1766,505000
4681;38,415000
4682;1961,505000
4683;1650,285000
4684;1968,135000
4685;-3915,795000
4686;1141,920000
4687;1098,045000
4688;1271,790000
4689;1078,935000
4690;730,665000
4691;1105,845000
4692;929,565000
4693;785,265000
4694;794,625000
4695;445,770000
4696;590,265000
4697;583,635000
4698;559,065000
4699;531,570000
4700;234,780000
4701;304,785000
4702;337,545000
4703;99,450000
4704;13,845000
4705;-222,495000
4706;-56,550000
4707;-67,860000
4708;-208,845000
4709;-204,945000
4710;-177,255000
4711;-185,445000
4712;-276,705000
4713;-589,875000
4714;-557,115000
4715;-584,610000
4716;-710,775000
4717;-879,060000
4718;-956,280000
4719;-609,765000
4720;-816,465000
4721;-831,480000
4722;-1218,555000
4723;-1041,105000
4724;-1318,395000
4725;-1016,730000
4726;-1133,925000
4727;-1209,780000
4728;-1285,050000
4729;-1181,895000
4730;-1598,220000
4731;-1343,745000
4732;-2965,365000
4733;-3151,590000
4734;-3000,465000
4735;-2661,165000
4736;-1275,885000
4737;-1262,040000
4738;-1330,095000
4739;-1374,750000
4740;-1785,030000
4741;-1335,945000
4742;-1461,525000
4743;-1463,475000
4744;-1602,510000
4745;-1671,930000
4746;-1586,520000
4747;-1503,255000
4748;-2099,565000
4749;-1702,350000
4750;-1513,005000
4751;-1595,490000
4752;-1496,040000
4753;-1558,245000
4754;-1772,745000
4755;-1638,975000
4756;-1429,935000
4757;-1482,390000
4758;-1513,200000
4759;-1458,210000
4760;-1734,525000
4761;-1318,590000
4762;-1401,465000
4763;-1296,750000
4764;-3922,620000
4765;-492,960000
4766;-544,440000
4767;-235,170000
4768;-259,935000
4769;-101,985000
4770;-66,300000
4771;-161,460000
4772;-13,065000
4773;2,730000
4774;-49,920000
4775;307,320000
4776;161,460000
4777;360,360000
4778;447,135000
4779;291,915000
4780;222,300000
4781;651,300000
4782;606,255000
4783;-1187,355000
4784;-879,450000
4785;-679,575000
4786;825,630000
4787;-572,325000
4788;1006,395000
4789;1178,775000
4790;1103,310000
4791;1258,725000
4792;936,585000
4793;1370,850000
4794;1569,750000
4795;1351,155000
4796;1535,430000
4797;1197,885000
4798;1614,795000
4799;1620,645000
4800;1191,060000
4801;1629,225000
4802;1680,315000
4803;1591,590000
4804;1743,495000
4805;1654,770000
4806;1459,380000
4807;1558,635000
4808;1759,680000
4809;1942,590000
4810;1957,020000
4811;1843,530000
4812;1632,735000
4813;1789,125000
4814;1909,830000
4815;1786,005000
4816;1833,780000
4817;1703,130000
4818;1884,480000
4819;1876,875000
4820;1685,190000
4821;1716,000000
4822;1335,750000
4823;1828,125000
4824;1774,890000
4825;1663,350000
4826;1666,665000
4827;1336,140000
4828;1606,800000
4829;1493,895000
4830;1559,220000
4831;1462,305000
4832;-17,160000
4833;19,500000
4834;1,560000
4835;104,520000
4836;96,135000
4837;-79,755000
4838;96,330000
4839;13,650000
4840;-161,655000
4841;-3923,205000
4842;-1240,785000
4843;-830,505000
4844;-767,520000
4845;-1007,565000
4846;-909,480000
4847;-1226,160000
4848;-969,930000
4849;-1066,845000
4850;-1047,930000
4851;-1078,740000
4852;-1303,965000
4853;-1458,015000
4854;-1189,305000
4855;-1262,820000
4856;-1359,540000
4857;-1356,030000
4858;-1357,590000
4859;-1508,325000
4860;-1187,355000
4861;-1366,560000
4862;-1376,115000
4863;-1615,770000
4864;-1735,890000
4865;-1601,145000
4866;-1531,920000
4867;-1472,055000
4868;-1505,985000
4869;-1693,965000
4870;-1791,075000
4871;-1678,365000
4872;-1539,720000
4873;-1544,400000
4874;-1646,190000
4875;-1580,085000
4876;-1761,630000
4877;-1557,270000
4878;-1641,900000
4879;-1583,595000
4880;-1497,210000
4881;-1677,390000
4882;-1441,440000
4883;-1362,855000
4884;-1265,745000
4885;-1272,960000
4886;-1762,410000
4887;-1219,335000
4888;-1144,260000
4889;-925,080000
4890;-1038,765000
4891;-1212,315000
4892;-1236,690000
4893;-890,955000
4894;-1201,200000
4895;-769,275000
4896;-793,260000
4897;-589,095000
4898;-819,975000
4899;-456,105000
4900;-802,035000
4901;-538,395000
4902;-2125,890000
4903;-1725,360000
4904;-1659,255000
4905;-1203,150000
4906;-3,900000
4907;402,480000
4908;266,370000
4909;491,010000
4910;452,985000
4911;457,860000
4912;199,875000
4913;516,165000
4914;562,575000
4915;591,825000
4916;443,820000
4917;547,560000
4918;266,955000
4919;711,750000
4920;600,795000
4921;730,860000
4922;-3914,820000
4923;1417,845000
4924;1599,780000
4925;1427,985000
4926;1608,165000
4927;1708,395000
4928;1572,870000
4929;1747,200000
4930;1805,505000
4931;1584,180000
4932;1579,890000
4933;1680,705000
4934;1837,485000
4935;1922,310000
4936;1727,310000
4937;1640,730000
4938;1839,240000
4939;1724,580000
4940;1788,735000
4941;1829,490000
4942;1853,670000
4943;1606,410000
4944;1810,575000
4945;1950,975000
4946;1734,915000
4947;1758,900000
4948;1492,530000
4949;1674,270000
4950;1857,570000
4951;1661,010000
4952;1685,775000
4953;1592,955000
4954;1735,890000
4955;66,300000
4956;-65,325000
4957;-143,130000
4958;221,325000
4959;1583,010000
4960;1404,195000
4961;1373,190000
4962;1327,560000
4963;1025,700000
4964;1219,335000
4965;1194,375000
4966;1068,210000
4967;958,425000
4968;593,970000
4969;797,940000
4970;510,705000
4971;312,780000
4972;645,060000
4973;444,210000
4974;506,415000
4975;370,500000
4976;349,830000
4977;145,860000
4978;412,230000
4979;379,470000
4980;181,545000
4981;95,160000
4982;-46,800000
4983;-188,565000
4984;91,455000
4985;-71,175000
4986;-403,845000
4987;-218,400000
4988;-274,560000
4989;-464,685000
4990;-396,045000
4991;-612,885000
4992;-773,565000
4993;-819,780000
4994;-970,125000
4995;-1093,560000
4996;-881,985000
4997;-990,015000
4998;-921,960000
4999;-1294,410000
5000;-1322,100000
5001;-3926,520000
5002;-1653,015000
5003;-1525,875000
5004;-1776,255000
5005;-1620,060000
5006;-1615,770000
5007;-3465,540000
5008;-3026,205000
5009;-2913,300000
5010;-1278,030000
5011;-2904,915000
5012;-1320,150000
5013;-1254,240000
5014;-1260,870000
5015;-1241,565000
5016;-1442,025000
5017;-1137,825000
5018;-1179,945000
5019;-1022,190000
5020;-1209,975000
5021;-1245,465000
5022;-1365,000000
5023;-1075,815000
5024;-1016,925000
5025;-1127,880000
5026;-1138,020000
5027;-993,525000
5028;-1249,755000
5029;-971,880000
5030;-834,990000
5031;-842,010000
5032;-683,475000
5033;-628,095000
5034;-1201,200000
5035;-591,435000
5036;-475,800000
5037;-598,845000
5038;-572,520000
5039;-496,275000
5040;-596,115000
5041;-383,565000
5042;-370,500000
5043;-324,090000
5044;-196,950000
5045;-501,150000
5046;-39,780000
5047;-6,435000
5048;-50,700000
5049;180,180000
5050;-180,765000
5051;312,975000
5052;349,635000
5053;511,680000
5054;529,425000
5055;522,015000
5056;609,960000
5057;723,060000
5058;404,625000
5059;822,705000
5060;821,535000
5061;754,065000
5062;849,420000
5063;989,235000
5064;665,730000
5065;1029,600000
5066;1020,630000
5067;896,220000
5068;1185,795000
5069;1336,335000
5070;896,610000
5071;1119,885000
5072;1265,160000
5073;1349,595000
5074;1448,265000
5075;1409,655000
5076;1202,370000
5077;-261,495000
5078;1746,615000
5079;1772,940000
5080;1599,000000
5081;1561,365000
5082;1413,555000
5083;-3914,040000
5084;1152,450000
5085;1560,195000
5086;1609,530000
5087;1185,405000
5088;770,640000
5089;1040,325000
5090;965,250000
5091;1025,895000
5092;895,440000
5093;630,435000
5094;929,175000
5095;790,335000
5096;852,540000
5097;722,670000
5098;506,220000
5099;601,770000
5100;565,305000
5101;472,095000
5102;623,220000
5103;186,420000
5104;118,560000
5105;-396,435000
5106;-265,785000
5107;-379,470000
5108;-737,685000
5109;-373,425000
5110;-612,300000
5111;-572,520000
5112;-662,805000
5113;-953,355000
5114;-741,000000
5115;-826,020000
5116;-876,135000
5117;-1005,810000
5118;-1163,760000
5119;-1000,155000
5120;-1204,125000
5121;-1079,325000
5122;-1306,890000
5123;-1260,090000
5124;-3100,305000
5125;-2801,955000
5126;-3141,255000
5127;-2818,725000
5128;-2672,670000
5129;-1042,275000
5130;-1149,525000
5131;-1201,005000
5132;-1462,110000
5133;-1237,860000
5134;-1339,260000
5135;-1109,550000
5136;-1275,885000
5137;-1248,000000
5138;-1456,650000
5139;-1299,870000
5140;-1409,460000
5141;-1305,720000
5142;-1485,510000
5143;-1390,740000
5144;-1572,480000
5145;-1377,870000
5146;-1375,920000
5147;-1380,990000
5148;-1512,420000
5149;-1341,600000
5150;-1762,995000
5151;-1330,680000
5152;-1380,990000
5153;-1263,795000
5154;-1395,810000
5155;-1298,115000
5156;-1695,135000
5157;-1496,235000
5158;-1332,825000
5159;-1208,025000
5160;-3922,815000
5161;-1111,305000
5162;-688,935000
5163;-449,280000
5164;-535,665000
5165;-454,350000
5166;-763,815000
5167;-380,250000
5168;-191,295000
5169;-327,015000
5170;-273,975000
5171;-146,445000
5172;-324,870000
5173;112,710000
5174;210,600000
5175;231,465000
5176;276,900000
5177;352,560000
5178;167,310000
5179;357,630000
5180;-1131,780000
5181;-1095,900000
5182;-969,540000
5183;-546,585000
5184;693,225000
5185;964,860000
5186;964,860000
5187;1066,650000
5188;1196,325000
5189;931,125000
5190;1186,380000
5191;1450,215000
5192;1329,315000
5193;1234,545000
5194;1388,595000
5195;1100,385000
5196;1301,820000
5197;1409,070000
5198;1578,330000
5199;1679,145000
5200;1752,270000
5201;1414,920000
5202;1631,175000
5203;1661,790000
5204;1751,100000
5205;1901,055000
5206;1738,425000
5207;1537,965000
5208;1827,735000
5209;1807,260000
5210;1800,240000
5211;2000,700000
5212;1785,030000
5213;1540,695000
5214;2085,915000
5215;1927,965000
5216;1752,855000
5217;1911,000000
5218;1703,325000
5219;1957,995000
5220;1845,480000
5221;2042,430000
5222;2051,985000
5223;1909,635000
5224;1889,745000
5225;1891,695000
5226;1645,605000
5227;1930,305000
5228;1987,245000
5229;1925,820000
5230;1822,470000
5231;1567,020000
5232;1491,945000
5233;1614,210000
5234;1557,075000
5235;1624,350000
5236;1622,985000
5237;1373,970000
5238;1441,050000
5239;1359,345000
5240;1259,700000
5241;1161,810000
5242;-308,490000
5243;334,815000
5244;200,655000
5245;-45,045000
5246;46,020000
5247;-307,905000
5248;-532,155000
5249;-353,730000
5250;-419,640000
5251;-447,330000
5252;-635,895000
5253;-887,835000
5254;-696,540000
5255;-791,115000
5256;-837,915000
5257;-924,300000
5258;-921,180000
5259;-1031,745000
5260;-1155,765000
5261;-1175,265000
5262;-1281,345000
5263;-1591,005000
5264;-1424,475000
5265;-1377,090000
5266;-1288,170000
5267;-1401,465000
5268;-1760,850000
5269;-1435,005000
5270;-1445,730000
5271;-1427,595000
5272;-1619,475000
5273;-1611,090000
5274;-1619,085000
5275;-1605,630000
5276;-1767,480000
5277;-1622,205000
5278;-1522,560000
5279;-1686,360000
5280;-1555,320000
5281;-1555,125000
5282;-1871,025000
5283;-1762,410000
5284;-1487,460000
5285;-1462,695000
5286;-1605,435000
5287;-1711,710000
5288;-1873,365000
5289;-1772,550000
5290;-1528,020000
5291;-1372,215000
5292;-1424,865000
5293;-1474,395000
5294;-1577,940000
5295;-1433,055000
5296;-1374,360000
5297;-3016,260000
5298;-2542,995000
5299;-891,345000
5300;-2554,110000
5301;-551,655000
5302;-569,790000
5303;-582,855000
5304;-477,165000
5305;-928,005000
5306;-526,890000
5307;-291,330000
5308;-282,945000
5309;-352,170000
5310;-629,265000
5311;-297,960000
5312;-260,520000
5313;-215,280000
5314;-47,385000
5315;48,555000
5316;-238,485000
5317;36,270000
5318;77,415000
5319;178,620000
5320;-3916,380000
5321;632,580000
5322;1113,840000
5323;852,540000
5324;1262,625000
5325;1318,005000
5326;1272,960000
5327;1439,490000
5328;1143,675000
5329;1576,965000
5330;1544,010000
5331;1579,890000
5332;1630,395000
5333;1327,755000
5334;1773,525000
5335;1727,310000
5336;1794,975000
5337;1607,385000
5338;1416,870000
5339;1565,850000
5340;1775,865000
5341;1780,740000
5342;1720,095000
5343;1471,275000
5344;1850,160000
5345;1639,560000
5346;-101,985000
5347;-11,895000
5348;1785,810000
5349;186,420000
5350;1897,935000
5351;1667,250000
5352;1719,510000
5353;1432,665000
5354;1702,740000
5355;1727,115000
5356;1672,320000
5357;1656,525000
5358;1226,550000
5359;1487,850000
5360;1476,540000
5361;1199,835000
5362;1129,635000
5363;-354,120000
5364;-282,165000
5365;-246,480000
5366;-516,945000
5367;-380,640000
5368;-304,200000
5369;-340,860000
5370;-282,555000
5371;-278,850000
5372;-584,025000
5373;-236,145000
5374;-405,015000
5375;-487,110000
5376;-464,100000
5377;-526,110000
5378;-773,955000
5379;-611,520000
5380;-585,585000
5381;-667,875000
5382;-705,510000
5383;-820,950000
5384;-929,565000
5385;-899,535000
5386;-889,980000
5387;-883,935000
5388;-839,670000
5389;-1433,835000
5390;-1041,885000
5391;-996,450000
5392;-1009,515000
5393;-1142,700000
5394;-1193,400000
5395;-3926,520000
5396;-3447,210000
5397;-3280,485000
5398;-3093,480000
5399;-2919,150000
5400;-1428,765000
5401;-1264,770000
5402;-1162,785000
5403;-1300,455000
5404;-1145,430000
5405;-1346,865000
5406;-1337,310000
5407;-1315,860000
5408;-1236,300000
5409;-1201,590000
5410;-1441,635000
5411;-1171,170000
5412;-1036,035000
5413;-1092,975000
5414;-1021,410000
5415;-971,490000
5416;-953,745000
5417;-846,300000
5418;-995,085000
5419;-763,035000
5420;-802,035000
5421;-732,030000
5422;-951,990000
5423;-605,085000
5424;-1032,525000
5425;-702,000000
5426;-625,365000
5427;-772,785000
5428;-323,310000
5429;-422,955000
5430;-664,560000
5431;-308,880000
5432;-344,760000
5433;-133,575000
5434;-338,325000
5435;-200,460000
5436;-487,110000
5437;-62,985000
5438;-11,700000
5439;45,045000
5440;184,080000
5441;-11,310000
5442;320,970000
5443;172,380000
5444;301,275000
5445;331,305000
5446;84,045000
5447;523,770000
5448;469,755000
5449;541,320000
5450;665,730000
5451;374,790000
5452;756,015000
5453;939,315000
5454;1007,370000
5455;983,385000
5456;736,710000
5457;1105,650000
5458;1163,760000
5459;990,210000
5460;-378,105000
5461;1407,705000
5462;1514,175000
5463;1365,975000
5464;1247,610000
5465;1561,560000
5466;1421,940000
5467;1513,005000
5468;1365,195000
5469;1583,790000
5470;1419,210000
5471;1736,280000
5472;-3914,235000
5473;1683,825000
5474;1594,125000
5475;1590,030000
5476;1603,875000
5477;1484,535000
5478;1677,390000
5479;1559,025000
5480;1457,430000
5481;1248,585000
5482;1456,260000
5483;1264,575000
5484;1213,875000
5485;1152,840000
5486;1132,170000
5487;1030,380000
5488;956,670000
5489;1076,205000
5490;1105,260000
5491;936,975000
5492;849,420000
5493;644,280000
5494;501,345000
5495;720,525000
5496;637,065000
5497;444,405000
5498;502,710000
5499;499,005000
5500;352,950000
5501;314,535000
5502;263,640000
5503;127,725000
5504;169,650000
5505;115,440000
5506;-94,380000
5507;-78,390000
5508;42,705000
5509;46,215000
5510;-271,440000
5511;-1595,880000
5512;-2194,335000
5513;-2095,470000
5514;-2003,625000
5515;-1925,040000
5516;-315,315000
5517;-309,855000
5518;-621,465000
5519;-468,780000
5520;-566,475000
5521;-679,185000
5522;-711,945000
5523;-792,870000
5524;-853,515000
5525;-883,155000
5526;-954,525000
5527;-991,770000
5528;-971,295000
5529;-1298,505000
5530;-1416,480000
5531;-1279,980000
5532;-1106,820000
5533;-1217,775000
5534;-1624,545000
5535;-1346,475000
5536;-1245,270000
5537;-1370,070000
5538;-1398,540000
5539;-1592,370000
5540;-1441,830000
5541;-1464,060000
5542;-1627,080000
5543;-1424,085000
5544;-1754,415000
5545;-1471,275000
5546;-1550,640000
5547;-1468,155000
5548;-1568,970000
5549;-1512,420000
5550;-1474,785000
5551;-3924,570000
5552;-771,420000
5553;-1056,315000
5554;-667,290000
5555;-682,890000
5556;-642,330000
5557;-492,570000
5558;-336,180000
5559;-790,140000
5560;-311,025000
5561;-549,120000
5562;-2104,245000
5563;-1897,155000
5564;-1556,685000
5565;-28,665000
5566;-1519,245000
5567;272,415000
5568;431,535000
5569;337,350000
5570;90,090000
5571;473,070000
5572;665,730000
5573;720,915000
5574;490,815000
5575;354,120000
5576;718,575000
5577;748,995000
5578;784,680000
5579;983,385000
5580;1116,180000
5581;1080,495000
5582;894,855000
5583;853,320000
5584;1222,065000
5585;1289,925000
5586;1431,495000
5587;1373,580000
5588;1332,240000
5589;1181,700000
5590;1525,875000
5591;1426,230000
5592;1465,620000
5593;1517,100000
5594;1656,330000
5595;1401,270000
5596;1712,880000
5597;1663,350000
5598;1692,600000
5599;1674,660000
5600;1785,615000
5601;1465,035000
5602;1592,565000
5603;1722,045000
5604;1913,145000
5605;1836,510000
5606;1750,710000
5607;1477,515000
5608;1963,455000
5609;1876,680000
5610;1896,570000
5611;1831,245000
5612;1862,445000
5613;1537,575000
5614;1902,810000
5615;1803,360000
5616;1784,445000
5617;1789,125000
5618;1597,440000
5619;1861,080000
5620;1776,840000
5621;1758,900000
5622;1587,105000
5623;691,860000
5624;993,915000
5625;980,655000
5626;897,975000
5627;1020,630000
5628;660,075000
5629;-1006,395000
5630;-3920,475000
5631;126,360000
5632;21,255000
5633;-166,140000
5634;-70,005000
5635;-202,800000
5636;-200,070000
5637;-348,855000
5638;-741,585000
5639;-666,510000
5640;-483,990000
5641;-641,745000
5642;-806,130000
5643;-768,105000
5644;-963,300000
5645;-715,065000
5646;-860,925000
5647;-1210,950000
5648;-1283,490000
5649;-1290,705000
5650;-1476,735000
5651;-1149,915000
5652;-1255,020000
5653;-1389,960000
5654;-1253,655000
5655;-1319,955000
5656;-1638,780000
5657;-1486,485000
5658;-1327,950000
5659;-1495,650000
5660;-1645,215000
5661;-1610,115000
5662;-1715,415000
5663;-1537,965000
5664;-1623,375000
5665;-1655,940000
5666;-1698,645000
5667;-1651,065000
5668;-1912,560000
5669;-1860,300000
5670;-1680,900000
5671;-1708,200000
5672;-1617,915000
5673;-1738,425000
5674;-1840,215000
5675;-1554,540000
5676;-1639,170000
5677;-1513,200000
5678;-1422,915000
5679;-1672,320000
5680;-3331,575000
5681;-2983,110000
5682;-2776,410000
5683;-2763,735000
5684;-901,290000
5685;-1170,585000
5686;-1019,460000
5687;-1062,555000
5688;-973,245000
5689;-854,880000
5690;-992,550000
5691;-776,880000
5692;-759,330000
5693;-785,070000
5694;-734,955000
5695;-843,765000
5696;-607,425000
5697;-589,485000
5698;-532,935000
5699;-623,415000
5700;-946,530000
5701;-487,110000
5702;-365,430000
5703;-217,230000
5704;-459,810000
5705;-341,055000
5706;-254,280000
5707;-199,680000
5708;-3917,355000
5709;968,565000
5710;967,785000
5711;911,040000
5712;1069,185000
5713;1062,360000
5714;908,700000
5715;1087,125000
5716;1262,430000
5717;1138,995000
5718;1322,880000
5719;1261,455000
5720;1359,540000
5721;1391,520000
5722;1634,295000
5723;1559,805000
5724;1404,390000
5725;1105,650000
5726;1435,980000
5727;1262,040000
5728;1420,770000
5729;770,445000
5730;-293,670000
5731;-462,540000
5732;-87,945000
5733;1249,365000
5734;1754,220000
5735;1754,610000
5736;1551,615000
5737;1345,305000
5738;1657,500000
5739;1647,165000
5740;1694,160000
5741;1665,885000
5742;797,160000
5743;579,930000
5744;780,585000
5745;909,675000
5746;951,210000
5747;820,170000
5748;933,660000
5749;552,045000
5750;974,805000
5751;775,320000
5752;912,990000
5753;842,010000
5754;719,745000
5755;897,585000
5756;713,895000
5757;764,010000
5758;735,540000
5759;591,825000
5760;455,325000
5761;618,930000
5762;319,215000
5763;730,275000
5764;697,125000
5765;432,315000
5766;-2257,320000
5767;-2138,565000
5768;-2421,315000
5769;-2269,995000
5770;-2126,475000
5771;-2137,395000
5772;-2071,485000
5773;-1904,370000
5774;-2214,810000
5775;-2108,145000
5776;-2059,395000
5777;-1773,720000
5778;-1959,750000
5779;-1803,555000
5780;-2169,960000
5781;-1790,295000
5782;-1808,040000
5783;-1953,510000
5784;-1733,745000
5785;-1837,680000
5786;-2065,440000
5787;-1632,540000
5788;-1698,450000
5789;-1833,780000
5790;-3926,715000
5791;-1484,340000
5792;-1391,130000
5793;-1307,475000
5794;-1284,270000
5795;-1501,305000
5796;-1179,360000
5797;-1185,405000
5798;-1154,985000
5799;-1005,810000
5800;-870,090000
5801;-1109,940000
5802;-670,020000
5803;-709,995000
5804;-696,930000
5805;-621,270000
5806;-540,150000
5807;-835,185000
5808;-504,075000
5809;-509,340000
5810;-471,315000
5811;-501,930000
5812;-601,575000
5813;-646,230000
5814;-420,225000
5815;-630,045000
5816;-402,870000
5817;-385,710000
5818;-336,765000
5819;-512,850000
5820;-390,780000
5821;-282,750000
5822;-243,750000
5823;-80,730000
5824;-331,890000
5825;-455,130000
5826;-58,500000
5827;-50,310000
5828;55,185000
5829;135,720000
5830;115,440000
5831;-217,620000
5832;253,500000
5833;347,490000
5834;274,560000
5835;709,800000
5836;639,015000
5837;430,950000
5838;729,690000
5839;738,660000
5840;749,385000
5841;904,020000
5842;808,860000
5843;567,645000
5844;822,510000
5845;894,660000
5846;995,475000
5847;851,760000
5848;1011,075000
5849;630,435000
5850;981,435000
5851;1090,050000
5852;1116,375000
5853;1189,695000
5854;-869,700000
5855;-422,175000
5856;-271,440000
5857;-193,440000
5858;1701,765000
5859;1476,735000
5860;1726,140000
5861;1590,030000
5862;1658,280000
5863;1901,250000
5864;1942,200000
5865;1640,145000
5866;1839,240000
5867;1912,365000
5868;2010,645000
5869;1924,650000
5870;1728,090000
5871;-3912,090000
5872;2033,850000
5873;1815,060000
5874;2240,745000
5875;1996,020000
5876;1915,290000
5877;1894,620000
5878;1852,500000
5879;1912,560000
5880;1969,110000
5881;1957,410000
5882;1982,760000
5883;1898,130000
5884;1688,895000
5885;1821,690000
5886;1780,155000
5887;1734,915000
5888;1583,595000
5889;1415,700000
5890;1049,295000
5891;1343,355000
5892;1276,860000
5893;1279,980000
5894;1122,225000
5895;1011,465000
5896;729,105000
5897;1054,755000
5898;913,185000
5899;682,305000
5900;768,105000
5901;580,320000
5902;542,490000
5903;712,530000
5904;476,385000
5905;-1301,820000
5906;-1335,750000
5907;289,965000
5908;-1434,810000
5909;423,930000
5910;247,845000
5911;226,980000
5912;-181,155000
5913;-78,195000
5914;-208,065000
5915;1,560000
5916;-136,110000
5917;-266,955000
5918;-673,725000
5919;-717,795000
5920;-792,090000
5921;-756,795000
5922;-864,045000
5923;-1097,265000
5924;-806,910000
5925;-998,790000
5926;-1253,070000
5927;-987,285000
5928;-1042,860000
5929;-1192,620000
5930;-1166,490000
5931;-1302,015000
5932;-1518,075000
5933;-1417,455000
5934;-1310,790000
5935;-1630,980000
5936;-1448,265000
5937;-1786,005000
5938;-1488,825000
5939;-1596,855000
5940;-1604,070000
5941;-1592,760000
5942;-1576,965000
5943;-1782,885000
5944;-1564,095000
5945;-1608,945000
5946;-1545,180000
5947;-1538,940000
5948;-1598,025000
5949;-1928,550000
5950;-1527,825000
5951;-3925,350000
5952;-1175,265000
5953;-991,770000
5954;-975,000000
5955;-2666,040000
5956;-2469,285000
5957;-2625,870000
5958;-2156,505000
5959;-1969,695000
5960;-198,510000
5961;-329,745000
5962;-504,075000
5963;-116,610000
5964;-86,580000
5965;107,055000
5966;98,670000
5967;-6339,450000
5968;-237,705000
5969;145,470000
5970;185,055000
5971;161,850000
5972;280,020000
5973;30,615000
5974;398,385000
5975;620,490000
5976;403,455000
5977;593,775000
5978;541,515000
5979;790,725000
5980;706,290000
5981;732,615000
5982;950,430000
5983;426,270000
5984;994,890000
5985;982,995000
5986;977,535000
5987;1009,905000
5988;844,350000
5989;1100,775000
5990;1220,310000
5991;1275,300000
5992;1158,690000
5993;1125,540000
5994;1543,035000
5995;1461,135000
5996;1557,270000
5997;1526,070000
5998;1508,715000
5999;1776,840000
6000;1844,115000
6001;1765,920000
6002;1750,710000
6003;1547,520000
6004;1708,200000
6005;1739,985000
6006;1743,690000
6007;1753,830000
6008;1355,835000
6009;1696,890000
6010;1413,555000
6011;1630,395000
6012;1778,205000
6013;1533,870000
6014;1761,435000
6015;1700,595000
6016;1662,375000
6017;-160,485000
6018;1499,745000
6019;1613,235000
6020;1529,385000
6021;1454,895000
6022;1353,495000
6023;-3918,135000
6024;-86,190000
6025;254,670000
6026;74,490000
6027;200,070000
6028;200,655000
6029;36,855000
6030;-79,560000
6031;-33,345000
6032;-573,690000
6033;-152,685000
6034;-442,845000
6035;-399,945000
6036;-749,580000
6037;-839,280000
6038;-541,125000
6039;-592,800000
6040;-603,525000
6041;-709,410000
6042;-1087,125000
6043;-842,205000
6044;-962,910000
6045;-941,460000
6046;-1200,225000
6047;-1036,620000
6048;-1345,305000
6049;-1124,760000
6050;-1330,485000
6051;-1379,040000
6052;-1286,610000
6053;-1686,750000
6054;-1455,285000
6055;-1554,930000
6056;-1781,325000
6057;-1675,635000
6058;-1906,710000
6059;-1532,700000
6060;-1583,595000
6061;-1580,670000
6062;-1641,510000
6063;-1892,670000
6064;-1738,425000
6065;-3326,895000
6066;-3254,355000
6067;-3390,270000
6068;-1706,640000
6069;-1502,865000
6070;-1363,050000
6071;-1536,210000
6072;-1436,760000
6073;-1506,180000
6074;-1642,290000
6075;-1316,640000
6076;-1284,465000
6077;-1430,715000
6078;-1392,885000
6079;-1580,865000
6080;-1202,370000
6081;-1339,065000
6082;-1409,850000
6083;-1052,805000
6084;-1453,140000
6085;-1196,520000
6086;-1155,960000
6087;-1228,890000
6088;-900,705000
6089;-1082,445000
6090;-929,175000
6091;-702,975000
6092;-884,130000
6093;-843,960000
6094;-838,305000
6095;-493,545000
6096;-3919,305000
6097;547,755000
6098;217,425000
6099;705,510000
6100;633,165000
6101;471,705000
6102;860,535000
6103;928,200000
6104;727,155000
6105;802,230000
6106;1022,385000
6107;1034,280000
6108;1057,680000
6109;802,815000
6110;1151,475000
6111;1238,055000
6112;1334,775000
6113;1193,790000
6114;-23,205000
6115;-785,850000
6116;-221,130000
6117;-228,540000
6118;-168,090000
6119;1557,075000
6120;1589,250000
6121;1398,540000
6122;1682,850000
6123;1764,945000
6124;1839,825000
6125;1530,750000
6126;1599,975000
6127;1898,130000
6128;1773,915000
6129;1788,345000
6130;2005,380000
6131;1659,060000
6132;1897,350000
6133;1825,590000
6134;2002,455000
6135;1857,765000
6136;1805,310000
6137;1505,985000
6138;1941,030000
6139;2009,865000
6140;1745,445000
6141;1664,520000
6142;1717,560000
6143;1362,855000
6144;1471,470000
6145;1537,965000
6146;1544,010000
6147;1514,760000
6148;1312,545000
6149;1406,535000
6150;1267,695000
6151;1240,980000
6152;1143,480000
6153;733,200000
6154;1078,350000
6155;983,190000
6156;795,600000
6157;822,315000
6158;553,605000
6159;715,065000
6160;634,725000
6161;622,635000
6162;394,290000
6163;356,655000
6164;183,690000
6165;191,490000
6166;36,855000
6167;-13,260000
6168;-366,015000
6169;-408,330000
6170;-373,230000
6171;-384,345000
6172;-373,035000
6173;-3925,350000
6174;-1387,620000
6175;-1493,505000
6176;-1482,780000
6177;-1694,160000
6178;-1456,845000
6179;-1556,100000
6180;-1511,055000
6181;-1446,900000
6182;-1708,200000
6183;-1803,750000
6184;-1583,595000
6185;-1566,045000
6186;-1635,660000
6187;-1764,165000
6188;-1535,430000
6189;-2041,650000
6190;-1625,130000
6191;-1672,125000
6192;-1660,230000
6193;-1665,885000
6194;-1697,085000
6195;-1859,130000
6196;-1771,185000
6197;-1654,965000
6198;-1697,670000
6199;-1640,730000
6200;-1670,955000
6201;-1578,330000
6202;-1470,690000
6203;-1770,990000
6204;-1418,625000
6205;-1386,450000
6206;-1318,395000
6207;-1316,250000
6208;-1156,545000
6209;-1168,830000
6210;-1032,525000
6211;-1413,360000
6212;-1135,485000
6213;-1001,715000
6214;-1048,515000
6215;-974,415000
6216;-1090,635000
6217;-1121,250000
6218;-911,430000
6219;-676,065000
6220;-667,875000
6221;-672,945000
6222;-667,680000
6223;-971,880000
6224;-446,940000
6225;-298,545000
6226;-266,760000
6227;-292,305000
6228;-284,310000
6229;-458,640000
6230;-27,885000
6231;-196,950000
6232;-1960,140000
6233;-1752,465000
6234;-1271,595000
6235;287,820000
6236;-1209,975000
6237;617,175000
6238;781,950000
6239;733,590000
6240;812,565000
6241;677,040000
6242;636,675000
6243;1170,585000
6244;1075,620000
6245;982,800000
6246;891,540000
6247;831,090000
6248;1221,090000
6249;1166,295000
6250;1343,745000
6251;1266,525000
6252;1202,370000
6253;1565,265000
6254;1503,840000
6255;-3914,625000
6256;1505,400000
6257;1709,370000
6258;1655,745000
6259;1595,100000
6260;1445,145000
6261;1488,435000
6262;1636,050000
6263;1727,310000
6264;1767,675000
6265;1510,665000
6266;1677,585000
6267;1395,030000
6268;1589,250000
6269;1590,030000
6270;1470,300000
6271;1571,115000
6272;1544,205000
6273;1276,860000
6274;1527,435000
6275;1409,070000
6276;1350,570000
6277;1201,200000
6278;1093,950000
6279;1045,200000
6280;1108,380000
6281;1177,995000
6282;911,430000
6283;717,795000
6284;-1081,080000
6285;-849,420000
6286;-865,800000
6287;-847,080000
6288;685,230000
6289;897,975000
6290;611,130000
6291;533,130000
6292;508,170000
6293;416,130000
6294;474,630000
6295;228,930000
6296;-258,570000
6297;180,570000
6298;161,460000
6299;40,365000
6300;-62,595000
6301;-3,315000
6302;-132,210000
6303;-92,040000
6304;-611,520000
6305;-365,430000
6306;-343,395000
6307;-372,645000
6308;-487,890000
6309;-820,365000
6310;-679,380000
6311;-799,110000
6312;-999,180000
6313;-1001,715000
6314;-884,910000
6315;-1171,365000
6316;-978,900000
6317;-1060,410000
6318;-1342,575000
6319;-1267,500000
6320;-1524,315000
6321;-1203,150000
6322;-1298,115000
6323;-1474,785000
6324;-1470,885000
6325;-1674,270000
6326;-1389,375000
6327;-1423,305000
6328;-1645,605000
6329;-1477,710000
6330;-1473,030000
6331;-3925,935000
6332;-1388,985000
6333;-3049,605000
6334;-3046,680000
6335;-2633,670000
6336;-2349,750000
6337;-1091,220000
6338;-698,490000
6339;-656,370000
6340;-625,950000
6341;-591,825000
6342;-608,790000
6343;-836,745000
6344;-417,690000
6345;-386,880000
6346;-446,940000
6347;-511,485000
6348;-342,615000
6349;-672,555000
6350;-343,005000
6351;-231,075000
6352;-133,575000
6353;-86,190000
6354;-349,050000
6355;-18,135000
6356;35,295000
6357;49,335000
6358;0,390000
6359;270,855000
6360;163,020000
6361;207,675000
6362;-18,330000
6363;346,515000
6364;338,130000
6365;458,250000
6366;396,435000
6367;391,170000
6368;337,545000
6369;597,285000
6370;524,355000
6371;814,125000
6372;961,350000
6373;894,855000
6374;627,705000
6375;1008,345000
6376;988,065000
6377;1048,905000
6378;959,010000
6379;638,040000
6380;1270,425000
6381;1420,185000
6382;1424,670000
6383;1355,640000
6384;1457,625000
6385;1183,065000
6386;1451,580000
6387;1475,175000
6388;1576,965000
6389;1677,780000
6390;1620,645000
6391;1416,675000
6392;1570,530000
6393;1463,280000
6394;1496,625000
6395;1811,355000
6396;1433,055000
6397;1735,305000
6398;1790,295000
6399;1681,680000
6400;1701,180000
6401;162,630000
6402;1809,600000
6403;1755,000000
6404;1800,825000
6405;1678,950000
6406;1472,250000
6407;1779,765000
6408;1667,835000
6409;1586,910000
6410;-3918,525000
6411;510,315000
6412;216,450000
6413;340,275000
6414;300,885000
6415;75,465000
6416;322,920000
6417;102,765000
6418;97,695000
6419;27,105000
6420;-172,185000
6421;-353,535000
6422;-4267,185000
6423;-3818,295000
6424;-3874,650000
6425;-3478,800000
6426;-3327,675000
6427;-3554,460000
6428;-3191,370000
6429;-3090,945000
6430;-3095,820000
6431;-3108,885000
6432;-2671,110000
6433;-2979,600000
6434;-2799,420000
6435;-2679,105000
6436;-2491,710000
6437;-2362,230000
6438;-2416,440000
6439;-2654,730000
6440;-2339,415000
6441;-2254,005000
6442;-2218,710000
6443;-2160,405000
6444;-2332,980000
6445;-1989,195000
6446;-2161,185000
6447;-2023,710000
6448;-1859,325000
6449;-1900,275000
6450;-1634,490000
6451;-1824,615000
6452;-3316,950000
6453;-2682,810000
6454;-726,570000
6455;-2331,615000
6456;-577,005000
6457;-808,275000
6458;-600,210000
6459;-901,485000
6460;-714,480000
6461;-601,185000
6462;-602,160000
6463;-752,895000
6464;-920,790000
6465;-655,590000
6466;-670,605000
6467;-1019,850000
6468;-623,415000
6469;-675,480000
6470;-669,045000
6471;-608,595000
6472;-683,475000
6473;-974,220000
6474;-695,760000
6475;-427,245000
6476;-626,730000
6477;-581,295000
6478;-463,905000
6479;-833,040000
6480;-397,605000
6481;-446,940000
6482;-74,490000
6483;-151,515000
6484;-97,305000
6485;-283,530000
6486;-37,245000
6487;52,065000
6488;-89,505000
6489;-3917,745000
6490;792,285000
6491;915,525000
6492;1010,295000
6493;936,780000
6494;672,750000
6495;911,625000
6496;1113,450000
6497;1125,345000
6498;1137,825000
6499;1206,660000
6500;840,840000
6501;1232,205000
6502;1348,230000
6503;1308,840000
6504;-400,725000
6505;-180,570000
6506;-489,450000
6507;-149,760000
6508;-30,030000
6509;1854,645000
6510;1838,265000
6511;1891,890000
6512;1596,855000
6513;1977,105000
6514;1901,445000
6515;1960,140000
6516;2135,640000
6517;1536,795000
6518;2041,065000
6519;2122,380000
6520;2171,130000
6521;1992,900000
6522;1842,945000
6523;1832,415000
6524;2176,395000
6525;2243,085000
6526;2252,640000
6527;2098,590000
6528;2209,155000
6529;2000,700000
6530;2087,085000
6531;2093,910000
6532;1756,365000
6533;1990,755000
6534;1910,025000
6535;1848,210000
6536;2003,430000
6537;1747,395000
6538;1584,765000
6539;1787,955000
6540;1751,295000
6541;1771,770000
6542;1486,290000
6543;1618,500000
6544;1612,845000
6545;1612,455000
6546;1420,380000
6547;1219,140000
6548;1468,545000
6549;1219,725000
6550;1089,855000
6551;1286,415000
6552;1234,740000
6553;811,590000
6554;962,910000
6555;958,620000
6556;965,250000
6557;701,415000
6558;301,275000
6559;-1157,715000
6560;-1005,420000
6561;-985,920000
6562;-1046,175000
6563;-1327,170000
6564;-3925,740000
6565;-2021,370000
6566;-1510,080000
6567;-1351,350000
6568;-1376,505000
6569;-1268,865000
6570;-1486,680000
6571;-1404,585000
6572;-1552,980000
6573;-1433,445000
6574;-1469,520000
6575;-1352,715000
6576;-1324,050000
6577;-1511,835000
6578;-1523,145000
6579;-1273,740000
6580;-1401,660000
6581;-1515,345000
6582;-1429,155000
6583;-1561,365000
6584;-1770,405000
6585;-1394,055000
6586;-1338,285000
6587;-1411,995000
6588;-1529,190000
6589;-1603,095000
6590;-1532,895000
6591;-1226,550000
6592;-1430,520000
6593;-1285,830000
6594;-1387,815000
6595;-1194,375000
6596;-1159,275000
6597;-923,520000
6598;-836,160000
6599;-1327,365000
6600;-879,645000
6601;-1004,250000
6602;-912,015000
6603;-831,675000
6604;-1092,000000
6605;-864,825000
6606;-668,850000
6607;-706,680000
6608;-641,550000
6609;-698,490000
6610;-519,675000
6611;-708,240000
6612;-697,905000
6613;-444,015000
6614;-293,865000
6615;-223,860000
6616;-230,295000
6617;-2307,435000
6618;-1690,260000
6619;-1434,225000
6620;-1171,365000
6621;426,465000
6622;592,410000
6623;298,935000
6624;578,955000
6625;654,615000
6626;478,530000
6627;840,255000
6628;881,205000
6629;441,675000
6630;802,620000
6631;884,325000
6632;866,580000
6633;947,700000
6634;1021,215000
6635;780,390000
6636;1062,360000
6637;1045,395000
6638;1215,825000
6639;1067,235000
6640;1028,040000
6641;1410,630000
6642;-3913,650000
6643;1809,015000
6644;1553,760000
6645;2098,395000
6646;2013,180000
6647;1760,265000
6648;2136,030000
6649;2034,435000
6650;2123,355000
6651;2048,085000
6652;2132,910000
6653;2049,840000
6654;1935,765000
6655;1941,420000
6656;2028,390000
6657;1681,095000
6658;1968,525000
6659;1909,050000
6660;1716,390000
6661;1973,985000
6662;1733,550000
6663;1765,530000
6664;1776,060000
6665;1731,405000
6666;1434,225000
6667;1677,000000
6668;1640,340000
6669;-661,830000
6670;-187,590000
6671;-199,680000
6672;1322,880000
6673;-363,090000
6674;1449,240000
6675;1486,485000
6676;1287,780000
6677;1215,240000
6678;713,895000
6679;923,520000
6680;967,785000
6681;910,650000
6682;792,675000
6683;655,005000
6684;540,930000
6685;645,450000
6686;596,700000
6687;544,440000
6688;608,595000
6689;448,305000
6690;73,515000
6691;427,635000
6692;337,935000
6693;311,610000
6694;294,450000
6695;6,240000
6696;-10,335000
6697;14,820000
6698;-131,820000
6699;-312,780000
6700;-456,495000
6701;-272,220000
6702;-433,485000
6703;-384,735000
6704;-678,015000
6705;-1055,925000
6706;-730,470000
6707;-680,550000
6708;-874,185000
6709;-901,095000
6710;-1105,845000
6711;-1149,330000
6712;-1149,330000
6713;-1157,130000
6714;-1118,520000
6715;-1310,790000
6716;-1330,290000
6717;-1266,720000
6718;-1546,350000
6719;-3926,910000
6720;-2199,990000
6721;-3251,430000
6722;-2784,795000
6723;-2894,970000
6724;-1125,930000
6725;-1339,455000
6726;-1111,110000
6727;-1106,625000
6728;-1236,885000
6729;-1268,085000
6730;-1448,070000
6731;-1071,330000
6732;-1114,620000
6733;-1002,690000
6734;-1046,760000
6735;-972,270000
6736;-1090,830000
6737;-879,450000
6738;-856,440000
6739;-839,280000
6740;-749,385000
6741;-797,940000
6742;-979,095000
6743;-781,365000
6744;-594,555000
6745;-477,360000
6746;-576,030000
6747;-481,455000
6748;-891,345000
6749;-593,970000
6750;-367,575000
6751;-258,960000
6752;-480,870000
6753;-360,945000
6754;-176,670000
6755;-143,130000
6756;-177,645000
6757;130,260000
6758;-140,985000
6759;226,785000
6760;374,595000
6761;420,420000
6762;547,170000
6763;156,780000
6764;529,815000
6765;791,310000
6766;811,590000
6767;725,595000
6768;518,310000
6769;853,515000
6770;1064,505000
6771;1016,535000
6772;1015,755000
6773;894,465000
6774;1228,695000
6775;1096,485000
6776;1277,055000
6777;1392,690000
6778;1209,390000
6779;1367,925000
6780;1437,150000
6781;1585,740000
6782;1535,235000
6783;1308,645000
6784;-381,420000
6785;1721,460000
6786;1619,670000
6787;1562,925000
6788;1647,165000
6789;1805,115000
6790;1732,965000
6791;1672,125000
6792;1705,470000
6793;1692,990000
6794;1054,560000
6795;-3918,135000
6796;645,840000
6797;574,470000
6798;555,555000
6799;648,960000
6800;542,295000
6801;41,535000
6802;356,070000
6803;244,920000
6804;307,320000
6805;306,540000
6806;183,690000
6807;155,415000
6808;229,905000
6809;-48,360000
6810;72,345000
6811;153,270000
6812;110,955000
6813;-54,795000
6814;-283,530000
6815;-237,705000
6816;-206,895000
6817;-245,700000
6818;-290,745000
6819;-508,950000
6820;-744,510000
6821;-336,180000
6822;-479,115000
6823;-634,335000
6824;-627,315000
6825;-780,585000
6826;-955,500000
6827;-825,825000
6828;-758,355000
6829;-798,720000
6830;-833,235000
6831;-950,820000
6832;-1330,680000
6833;-1416,285000
6834;-2554,305000
6835;-2823,210000
6836;-2776,410000
6837;-1272,375000
6838;-1064,895000
6839;-1144,845000
6840;-1134,120000
6841;-1243,515000
6842;-1536,015000
6843;-1273,740000
6844;-1237,665000
6845;-1458,795000
6846;-1439,685000
6847;-1442,220000
6848;-1682,460000
6849;-1669,395000
6850;-1409,850000
6851;-1554,930000
6852;-1543,815000
6853;-1644,045000
6854;-1655,940000
6855;-1461,330000
6856;-1332,630000
6857;-1509,105000
6858;-1734,330000
6859;-1386,840000
6860;-1538,745000
6861;-1285,635000
6862;-1569,750000
6863;-1696,305000
6864;-1118,520000
6865;-1210,170000
6866;-1170,780000
6867;-1112,670000
6868;-1499,355000
6869;-1053,975000
6870;-1022,190000
6871;-3921,840000
6872;-160,875000
6873;-113,295000
6874;-241,605000
6875;-52,455000
6876;-85,020000
6877;-165,165000
6878;205,530000
6879;281,190000
6880;387,465000
6881;348,270000
6882;-727,155000
6883;-1572,675000
6884;-1191,645000
6885;-900,120000
6886;-730,275000
6887;871,455000
6888;947,310000
6889;915,330000
6890;1106,040000
6891;1195,155000
6892;1092,585000
6893;1394,445000
6894;1363,440000
6895;1164,540000
6896;1271,985000
6897;1133,535000
6898;1517,685000
6899;1575,990000
6900;1486,680000
6901;1395,030000
6902;1443,000000
6903;1592,175000
6904;1566,825000
6905;1703,520000
6906;1036,035000
6907;1557,855000
6908;1378,065000
6909;1510,665000
6910;1508,130000
6911;1627,275000
6912;1603,290000
6913;1659,645000
6914;1288,170000
6915;1471,860000
6916;1613,040000
6917;1644,825000
6918;1616,355000
6919;1765,530000
6920;1453,725000
6921;1624,740000
6922;1492,530000
6923;1685,775000
6924;1734,525000
6925;1543,815000
6926;1428,375000
6927;1677,000000
6928;1585,935000
6929;1677,000000
6930;1733,745000
6931;1646,385000
6932;1237,080000
6933;1588,860000
6934;1546,545000
6935;1560,195000
6936;1452,555000
6937;1445,925000
6938;1108,185000
6939;1292,265000
6940;1398,735000
6941;1241,565000
6942;1053,780000
6943;782,145000
6944;1084,200000
6945;856,635000
6946;904,020000
6947;853,320000
6948;397,605000
6949;709,800000
6950;498,420000
6951;-1110,525000
6952;-3922,815000
6953;-553,995000
6954;-607,425000
6955;-718,380000
6956;-871,260000
6957;-1054,170000
6958;-898,755000
6959;-1035,255000
6960;-925,080000
6961;-1200,225000
6962;-1293,630000
6963;-1041,300000
6964;-1354,860000
6965;-1310,985000
6966;-1375,335000
6967;-1224,990000
6968;-1540,890000
6969;-1275,300000
6970;-1411,215000
6971;-1496,040000
6972;-1629,615000
6973;-1515,540000
6974;-1766,310000
6975;-1513,395000
6976;-1459,770000
6977;-1559,220000
6978;-1576,770000
6979;-1769,430000
6980;-1607,970000
6981;-1451,775000
6982;-1598,220000
6983;-1653,795000
6984;-1829,490000
6985;-1541,280000
6986;-1595,295000
6987;-1602,900000
6988;-1461,525000
6989;-1762,020000
6990;-1511,640000
6991;-1504,815000
6992;-1484,535000
6993;-1319,175000
6994;-1613,430000
6995;-1345,305000
6996;-1245,270000
6997;-1183,065000
6998;-1159,080000
6999;-1401,660000
7000;-2875,860000
7001;-2539,875000
7002;-2319,135000
7003;-2115,165000
7004;-503,685000
7005;-271,050000
7006;-267,540000
7007;-251,355000
7008;-190,125000
7009;-264,030000
7010;-22,035000
7011;-143,910000
7012;-29,250000
7013;81,705000
7014;-144,885000
7015;176,865000
7016;186,030000
7017;286,260000
7018;352,365000
7019;394,290000
7020;420,030000
7021;633,945000
7022;322,140000
7023;639,210000
7024;678,405000
7025;539,955000
7026;701,805000
7027;-3915,405000
7028;1279,980000
7029;1780,740000
7030;1631,370000
7031;1712,490000
7032;1733,355000
7033;1502,085000
7034;1811,745000
7035;1703,520000
7036;1870,245000
7037;1732,770000
7038;1288,170000
7039;1801,605000
7040;1854,060000
7041;1789,125000
7042;1844,505000
7043;1579,500000
7044;1930,890000
7045;1760,460000
7046;1626,300000
7047;29,640000
7048;-34,125000
7049;-286,065000
7050;-122,460000
7051;43,290000
7052;1684,410000
7053;1752,465000
7054;1075,230000
7055;1267,305000
7056;1228,110000
7057;1324,830000
7058;1207,050000
7059;1129,440000
7060;837,135000
7061;927,420000
7062;608,010000
7063;975,585000
7064;771,615000
7065;842,595000
7066;724,425000
7067;640,185000
7068;385,320000
7069;733,005000
7070;542,685000
7071;553,410000
7072;545,025000
7073;460,200000
7074;126,360000
7075;338,130000
7076;342,030000
7077;306,345000
7078;190,905000
7079;203,580000
7080;-227,565000
7081;174,330000
7082;78,000000
7083;-102,570000
7084;-286,650000
7085;-524,940000
7086;-258,570000
7087;-429,585000
7088;-487,305000
7089;-392,340000
7090;-886,080000
7091;-643,890000
7092;-584,025000
7093;-651,495000
7094;-640,380000
7095;-1066,845000
7096;-1065,090000
7097;-1068,600000
7098;-1250,730000
7099;-1123,005000
7100;-1535,430000
7101;-1233,570000
7102;-3925,740000
7103;-2032,290000
7104;-1511,055000
7105;-1583,985000
